0
 0
5
 0
10
 0
16
 0
21
 0
26
 0
31
 0
36
 0
43
 0
48
 0
53
 0
58
 0
63
 0
68
 0
74
 0
79
 0
84
 0
90
 0
95
 0
101
 0
106
 0
111
 0
116
 0
122
 0
128
 0
133
 0
138
 0
144
 0
149
 0
154
 0
159
 0
165
 0
171
 0
176
 0
181
 0
187
 0
192
 0
197
 0
202
 0
208
 0
214
 0
219
 0
224
 0
229
 0
235
 0
240
 0
245
 0
250
 0
257
 0
262
 0
267
 0
272
 0
278
 0
283
 0
288
 0
293
 0
300
 0
305
 0
310
 0
315
 0
321
 0
326
 0
331
 0
336
 0
343
 0
348
 0
353
 0
358
 0
364
 0
369
 0
374
 0
379
 0
386
 0
391
 0
396
 0
401
 0
406
 0
412
 0
417
 0
422
 0
428
 0
434
 0
439
 0
444
 0
449
 0
455
 0
460
 0
465
 0
471
 0
477
 0
482
 0
487
 0
492
 0
498
 0
503
 0
508
 0
514
 0
520
 0
525
 0
530
 0
535
 0
541
 0
546
 0
551
 0
557
 0
563
 0
568
 0
573
 0
578
 0
583
 0
589
 0
594
 0
600
 0
605
 0
611
 0
616
 0
621
 0
626
 0
632
 0
637
 0
643
 0
648
 0
654
 0
659
 0
664
 0
669
 0
675
 0
680
 0
686
 0
691
 0
697
 0
702
 0
707
 0
712
 0
718
 0
723
 0
729
 0
734
 0
740
 0
745
 0
750
 0
755
 0
760
 0
766
 0
772
 0
777
 0
782
 0
788
 0
793
 0
798
 0
803
 0
809
 0
815
 0
820
 0
825
 0
831
 0
836
 0
841
 0
846
 0
852
 0
858
 0
863
 0
868
 0
874
 0
879
 0
884
 0
889
 0
896
 0
901
 0
906
 0
911
 0
917
 0
922
 0
927
 0
932
 0
937
 0
944
 0
949
 0
954
 0
959
 0
965
 0
970
 0
975
 0
980
 0
987
 0
992
 0
997
 0
1002
 0
1008
 0
1013
 0
1018
 0
1025
 0
1030
 0
1035
 0
1040
 0
1046
 0
1051
 0
1056
 0
1062
 0
1068
 0
1073
 0
1078
 0
1084
 0
1089
 0
1094
 0
1100
 0
1105
 0
1111
 0
1116
 0
1122
 0
1127
 0
1132
 0
1138
 0
1143
 0
1148
 0
1154
 0
1160
 0
1165
 0
1170
 0
1176
 0
1181
 0
1186
 0
1191
 0
1198
 0
1203
 0
1208
 0
1214
 0
1219
 0
1224
 0
1229
 0
1235
 0
1241
 0
1246
 0
1252
 0
1257
 0
1262
 0
1267
 0
1273
 0
1278
 0
1284
 0
1289
 0
1295
 0
1300
 0
1305
 0
1311
 0
1316
 0
1321
 0
1328
 0
1333
 0
1338
 0
1343
 0
1349
 0
1354
 0
1359
 0
1366
 0
1371
 0
1376
 0
1381
 0
1387
 0
1392
 0
1397
 0
1403
 0
1409
 0
1414
 0
1419
 0
1425
 0
1430
 0
1435
 0
1440
 0
1446
 0
1452
 0
1457
 0
1463
 0
1468
 0
1473
 0
1478
 0
1484
 0
1489
 0
1495
 0
1501
 0
1506
 0
1511
 0
1516
 0
1522
 0
1527
 0
1532
 0
1539
 0
1544
 0
1549
 0
1554
 0
1560
 0
1565
 0
1570
 0
1576
 0
1582
 0
1587
 0
1592
 0
1598
 0
1603
 0
1608
 0
1614
 0
1619
 0
1625
 0
1630
 0
1636
 0
1641
 0
1646
 0
1652
 0
1657
 0
1662
 0
1668
 0
1674
 0
1679
 0
1684
 0
1690
 0
1695
 0
1700
 0
1705
 0
1712
 0
1717
 0
1722
 0
1728
 0
1733
 0
1738
 0
1743
 0
1750
 0
1755
 0
1760
 0
1766
 0
1771
 0
1776
 0
1781
 0
1787
 0
1793
 0
1798
 0
1804
 0
1809
 0
1814
 0
1819
 0
1825
 0
1830
 0
1836
 0
1842
 0
1847
 0
1852
 0
1857
 0
1863
 0
1868
 0
1873
 0
1880
 0
1885
 0
1890
 0
1895
 0
1901
 0
1906
 0
1911
 0
1917
 0
1923
 0
1928
 0
1933
 0
1939
 0
1944
 0
1949
 0
1955
 0
1960
 0
1966
 0
1971
 0
1977
 0
1982
 0
1987
 0
1993
 0
1998
 0
2003
 0
2009
 0
2015
 0
2020
 0
2025
 0
2031
 0
2036
 0
2041
 0
2046
 0
2053
 0
2058
 0
2063
 0
2069
 0
2074
 0
2079
 0
2084
 0
2091
 0
2096
 0
2101
 0
2107
 0
2112
 0
2117
 0
2122
 0
2128
 0
2134
 0
2139
 0
2145
 0
2150
 0
2155
 0
2160
 0
2166
 0
2171
 0
2177
 0
2183
 0
2188
 0
2193
 0
2198
 0
2204
 0
2209
 0
2214
 0
2220
 0
2226
 0
2231
 0
2236
 0
2242
 0
2247
 0
2252
 0
2257
 0
2264
 0
2269
 0
2274
 0
2280
 0
2285
 0
2290
 0
2295
 0
2301
 0
2307
 0
2312
 0
2318
 0
2323
 0
2328
 0
2333
 0
2339
 0
2344
 0
2350
 0
2356
 0
2361
 0
2366
 0
2371
 0
2377
 0
2382
 0
2387
 0
2394
 0
2399
 0
2404
 0
2409
 0
2415
 0
2420
 0
2425
 0
2432
 0
2437
 0
2442
 0
2447
 0
2453
 0
2458
 0
2463
 0
2469
 0
2475
 0
2480
 0
2485
 0
2491
 0
2496
 0
2501
 0
2507
 0
2512
 0
2518
 0
2523
 0
2529
 0
2534
 0
2539
 0
2545
 0
2550
 0
2555
 0
2561
 0
2567
 0
2572
 0
2577
 0
2583
 0
2588
 0
2593
 0
2598
 0
2605
 0
2610
 0
2615
 0
2621
 0
2626
 0
2631
 0
2636
 0
2642
 0
2648
 0
2653
 0
2659
 0
2664
 0
2669
 0
2674
 0
2680
 0
2685
 0
2691
 0
2697
 0
2702
 0
2707
 0
2712
 0
2718
 0
2723
 0
2728
 0
2735
 0
2740
 0
2745
 0
2750
 0
2756
 0
2761
 0
2766
 0
2771
 0
2778
 0
2783
 0
2788
 0
2794
 0
2799
 0
2804
 0
2809
 0
2816
 0
2821
 0
2826
 0
2832
 0
2837
 0
2842
 0
2847
 0
2853
 0
2859
 0
2864
 0
2870
 0
2875
 0
2880
 0
2885
 0
2891
 0
2896
 0
2902
 0
2908
 0
2913
 0
2918
 0
2923
 0
2929
 0
2934
 0
2939
 0
2946
 0
2951
 0
2956
 0
2961
 0
2967
 0
2972
 0
2977
 0
2983
 0
2989
 0
2994
 0
2999
 0
3005
 0
3010
 0
3015
 0
3021
 0
3026
 0
3032
 0
3037
 0
3043
 0
3048
 0
3053
 0
3059
 0
3064
 0
3069
 0
3075
 0
3081
 0
3086
 0
3091
 0
3097
 0
3102
 0
3107
 0
3112
 0
3119
 0
3124
 0
3129
 0
3135
 0
3140
 0
3145
 0
3150
 0
3156
 0
3162
 0
3167
 0
3173
 0
3178
 0
3183
 0
3188
 0
3194
 0
3200
 0
3205
 0
3211
 0
3216
 0
3221
 0
3226
 0
3232
 0
3237
 0
3243
 0
3248
 0
3254
 0
3259
 0
3264
 0
3270
 0
3275
 0
3280
 0
3286
 0
3292
 0
3297
 0
3302
 0
3308
 0
3313
 0
3318
 0
3323
 0
3330
 0
3335
 0
3340
 0
3346
 0
3351
 0
3356
 0
3361
 0
3367
 0
3373
 0
3378
 0
3384
 0
3389
 0
3394
 0
3399
 0
3405
 0
3410
 0
3416
 0
3422
 0
3427
 0
3432
 0
3437
 0
3443
 0
3448
 0
3453
 0
3460
 0
3465
 0
3470
 0
3475
 0
3481
 0
3486
 0
3491
 0
3497
 0
3503
 0
3508
 0
3513
 0
3519
 0
3524
 0
3529
 0
3535
 0
3540
 0
3546
 0
3551
 0
3557
 0
3562
 0
3567
 0
3573
 0
3578
 0
3584
 0
3589
 0
3595
 0
3600
 0
3605
 0
3611
 0
3616
 0
3621
 0
3627
 0
3633
 0
3638
 0
3643
 0
3648
 0
3654
 0
3659
 0
3664
 0
3671
 0
3676
 0
3681
 0
3686
 0
3692
 0
3697
 0
3702
 0
3708
 0
3714
 0
3719
 0
3724
 0
3730
 0
3735
 0
3740
 0
3746
 0
3751
 0
3757
 0
3762
 0
3768
 0
3773
 0
3778
 0
3784
 0
3789
 0
3794
 0
3800
 0
3806
 0
3811
 0
3816
 0
3822
 0
3827
 0
3832
 0
3837
 0
3844
 0
3849
 0
3854
 0
3860
 0
3865
 0
3870
 0
3875
 0
3881
 0
3887
 0
3892
 0
3898
 0
3903
 0
3908
 0
3913
 0
3919
 0
3924
 0
3930
 0
3936
 0
3941
 0
3946
 0
3951
 0
3957
 0
3962
 0
3968
 0
3974
 0
3979
 0
3984
 0
3989
 0
3995
 0
4000
 0
4005
 0
4012
 0
4017
 0
4022
 0
4027
 0
4033
 0
4038
 0
4043
 0
4049
 0
4055
 0
4060
 0
4065
 0
4071
 0
4076
 0
4081
 0
4087
 0
4092
 0
4098
 0
4103
 0
4109
 0
4114
 0
4119
 0
4125
 0
4130
 0
4135
 0
4141
 0
4147
 0
4152
 0
4157
 0
4162
 0
4168
 0
4173
 0
4178
 0
4185
 0
4190
 0
4195
 0
4200
 0
4206
 0
4211
 0
4216
 0
4222
 0
4228
 0
4233
 0
4238
 0
4244
 0
4249
 0
4254
 0
4260
 0
4265
 0
4271
 0
4276
 0
4282
 0
4287
 0
4292
 0
4298
 0
4303
 0
4308
 0
4314
 0
4320
 0
4325
 0
4330
 0
4336
 0
4341
 0
4346
 0
4352
 0
4358
 0
4363
 0
4368
 0
4374
 0
4379
 0
4384
 0
4389
 0
4396
 0
4401
 0
4406
 0
4412
 0
4417
 0
4422
 0
4427
 0
4433
 0
4439
 0
4444
 0
4450
 0
4455
 0
4460
 0
4465
 0
4471
 0
4476
 0
4482
 0
4488
 0
4493
 0
4498
 0
4503
 0
4509
 0
4514
 0
4519
 0
4526
 0
4531
 0
4536
 0
4541
 0
4547
 0
4552
 0
4557
 0
4562
 0
4569
 0
4574
 0
4579
 0
4585
 0
4590
 0
4595
 0
4600
 0
4606
 0
4612
 0
4617
 0
4623
 0
4628
 0
4633
 0
4638
 0
4644
 0
4649
 0
4655
 0
4661
 0
4666
 0
4671
 0
4676
 0
4682
 0
4687
 0
4692
 0
4699
 0
4704
 0
4709
 0
4714
 0
4720
 0
4725
 0
4730
 0
4737
 0
4742
 0
4747
 0
4752
 0
4758
 0
4763
 0
4768
 0
4774
 0
4780
 0
4785
 0
4790
 0
4796
 0
4801
 0
4806
 0
4812
 0
4817
 0
4823
 0
4828
 0
4834
 0
4839
 0
4844
 0
4850
 0
4855
 0
4860
 0
4866
 0
4872
 0
4877
 0
4882
 0
4888
 0
4893
 0
4898
 0
4903
 0
4910
 0
4915
 0
4920
 0
4926
 0
4931
 0
4936
 0
4941
 0
4947
 0
4953
 0
4958
 0
4963
 0
4969
 0
4974
 0
4979
 0
4985
 0
4990
 0
4996
 0
5001
 0
5007
 0
5012
 0
5017
 0
5023
 0
5028
 0
5033
 0
5039
 0
5045
 0
5050
 0
5055
 0
5061
 0
5066
 0
5071
 0
5076
 0
5083
 0
5088
 0
5093
 0
5099
 0
5104
 0
5109
 0
5114
 0
5121
 0
5126
 0
5131
 0
5137
 0
5142
 0
5147
 0
5152
 0
5158
 0
5164
 0
5169
 0
5175
 0
5180
 0
5185
 0
5190
 0
5196
 0
5201
 0
5207
 0
5213
 0
5218
 0
5223
 0
5228
 0
5234
 0
5239
 0
5244
 0
5251
 0
5256
 0
5261
 0
5266
 0
5272
 0
5277
 0
5282
 0
5288
 0
5294
 0
5299
 0
5304
 0
5310
 0
5315
 0
5320
 0
5326
 0
5331
 0
5337
 0
5342
 0
5348
 0
5353
 0
5358
 0
5364
 0
5369
 0
5374
 0
5380
 0
5386
 0
5391
 0
5396
 0
5402
 0
5407
 0
5412
 0
5417
 0
5424
 0
5429
 0
5434
 0
5439
 0
5445
 0
5450
 0
5455
 0
5462
 0
5467
 0
5472
 0
5477
 0
5483
 0
5488
 0
5493
 0
5499
 0
5505
 0
5510
 0
5515
 0
5521
 0
5526
 0
5531
 0
5537
 0
5542
 0
5548
 0
5553
 0
5559
 0
5564
 0
5569
 0
5575
 0
5580
 0
5585
 0
5591
 0
5597
 0
5602
 0
5607
 0
5613
 0
5618
 0
5623
 0
5628
 0
5635
 0
5640
 0
5645
 0
5651
 0
5656
 0
5661
 0
5666
 0
5672
 0
5678
 0
5683
 0
5689
 0
5694
 0
5699
 0
5704
 0
5710
 0
5715
 0
5721
 76
5727
 90
5732
 103
5737
 116
5743
 128
5748
 140
5753
 152
5760
 162
5765
 173
5771
 183
5776
 193
5781
 202
5787
 211
5792
 201
5797
 204
5804
 209
5809
 212
5815
 217
5820
 221
5825
 224
5831
 228
5836
 232
5842
 234
5848
 238
5853
 241
5859
 244
5864
 247
5869
 250
5875
 253
5880
 256
5886
 259
5892
 263
5897
 265
5903
 269
5908
 271
5913
 275
5919
 277
5924
 279
5931
 282
5936
 285
5941
 287
5947
 289
5952
 293
5957
 296
5963
 298
5968
 301
5975
 303
5980
 307
5985
 308
5991
 310
5996
 313
6001
 316
6007
 318
6012
 319
6019
 322
6024
 324
6029
 326
6035
 328
6040
 331
6046
 331
6051
 333
6056
 335
6063
 337
6068
 339
6073
 341
6079
 343
6084
 345
6090
 346
6095
 348
6100
 350
6107
 352
6112
 353
6117
 356
6123
 358
6128
 359
6134
 360
6139
 362
6145
 364
6151
 366
6156
 367
6161
 369
6167
 370
6172
 373
6178
 375
6183
 375
6189
 378
6195
 379
6200
 380
6206
 382
6211
 383
6216
 386
6222
 386
6227
 388
6233
 389
6239
 390
6244
 393
6250
 393
6255
 394
6260
 396
6266
 397
6272
 398
6277
 400
6283
 401
6288
 402
6294
 403
6299
 406
6304
 407
6310
 408
6316
 409
6321
 411
6327
 413
6332
 412
6338
 413
6343
 415
6348
 416
6354
 417
6360
 418
6365
 418
6371
 420
6376
 423
6382
 423
6387
 422
6392
 425
6398
 426
6404
 427
6410
 428
6415
 430
6420
 431
6426
 430
6431
 431
6436
 432
6443
 433
6448
 434
6454
 436
6459
 436
6464
 437
6470
 436
6475
 439
6480
 440
6487
 439
6492
 442
6498
 444
6503
 443
6508
 443
6514
 445
6519
 445
6524
 446
6531
 446
6536
 449
6542
 448
6547
 449
6552
 450
6558
 451
6563
 451
6568
 452
6575
 452
6580
 453
6586
 454
6591
 455
6596
 457
6602
 456
6607
 455
6612
 457
6619
 457
6624
 457
6630
 459
6635
 461
6640
 460
6646
 459
6651
 461
6658
 461
6663
 462
6668
 463
6674
 462
6679
 463
6684
 465
6690
 465
6695
 465
6702
 466
6707
 466
6712
 466
6718
 467
6723
 466
6728
 468
6734
 469
6739
 468
6746
 468
6751
 471
6756
 470
6762
 470
6767
 470
6772
 470
6778
 470
6784
 472
6790
 472
6795
 473
6800
 472
6806
 472
6811
 473
6817
 475
6822
 476
6828
 477
6834
 473
6839
 473
6844
 475
6850
 476
6855
 477
6861
 477
6866
 475
6872
 478
6878
 479
6883
 478
6888
 477
6894
 477
6899
 480
6905
 479
6910
 480
6916
 478
6922
 477
6927
 479
6932
 481
6938
 479
6943
 479
6949
 480
6955
 482
6960
 481
6966
 481
6971
 481
6977
 480
6982
 482
6987
 483
6993
 480
6999
 482
7004
 481
7010
 484
7015
 483
7021
 482
7026
 483
7031
 482
7037
 485
7043
 484
7048
 483
7054
 483
7059
 484
7065
 484
7070
 486
7075
 487
7081
 485
7087
 485
7092
 483
7098
 488
7103
 486
7109
 486
7114
 486
7119
 488
7126
 485
7131
 487
7137
 489
7142
 487
7147
 487
7153
 489
7158
 486
7163
 486
7170
 488
7175
 488
7181
 489
7186
 489
7191
 488
7197
 491
7202
 491
7207
 488
7214
 489
7219
 489
7225
 490
7230
 489
7235
 489
7241
 489
7246
 490
7251
 490
7258
 490
7263
 491
7269
 492
7274
 490
7279
 491
7285
 492
7290
 490
7296
 490
7302
 491
7307
 492
7313
 490
7318
 493
7323
 492
7329
 491
7334
 493
7341
 492
7346
 491
7351
 491
7357
 494
7362
 491
7367
 490
7373
 494
7378
 495
7385
 493
7390
 492
7395
 495
7401
 494
7406
 492
7411
 493
7417
 492
7422
 495
7429
 498
7434
 491
7439
 493
7445
 496
7450
 494
7455
 492
7461
 496
7467
 495
7473
 492
7478
 496
7483
 493
7489
 491
7494
 493
7500
 496
7505
 500
7511
 490
7517
 494
7522
 491
7527
 492
7533
 494
7538
 500
7544
 493
7549
 495
7555
 493
7561
 496
7566
 494
7571
 492
7577
 496
7582
 493
7588
 494
7593
 494
7599
 495
7605
 494
7610
 494
7615
 494
7621
 494
7626
 488
7632
 491
7638
 505
7643
 493
7649
 493
7654
 492
7659
 489
7665
 489
7670
 492
7676
 494
7682
 493
7687
 497
7693
 492
7698
 494
7704
 507
7709
 496
7714
 490
7720
 490
7726
 506
7731
 500
7737
 492
7742
 488
7748
 489
7753
 491
7758
 501
7764
 507
7770
 504
7775
 485
7781
 494
7786
 491
7792
 518
7797
 499
7802
 506
7809
 516
7814
 488
7819
 504
7825
 489
7830
 474
7836
 488
7841
 492
7846
 547
7853
 492
7858
 522
7864
 493
7869
 507
7874
 478
7880
 534
7885
 487
7890
 463
7897
 491
7902
 518
7908
 489
7913
 492
7918
 489
7924
 505
7929
 514
7934
 491
7941
 491
7946
 549
7952
 497
7957
 496
7962
 469
7968
 464
7973
 497
7979
 508
7985
 494
7990
 503
7996
 487
8001
 520
8006
 478
8012
 475
8017
 514
8023
 526
8029
 516
8034
 452
8040
 497
8045
 499
8050
 508
8056
 563
8061
 484
8068
 479
8073
 498
8078
 473
8084
 498
8089
 517
8094
 526
8100
 490
8105
 483
8112
 484
8117
 506
8122
 485
8128
 501
8133
 498
8138
 485
8144
 529
8150
 478
8156
 463
8161
 519
8166
 517
8172
 519
8177
 505
8182
 445
8188
 475
8194
 507
8200
 533
8205
 512
8210
 488
8216
 452
8221
 484
8226
 513
8232
 462
8238
 541
8244
 475
8249
 506
8254
 489
8260
 515
8265
 518
8271
 491
8276
 508
8282
 474
8288
 550
8293
 466
8298
 493
8304
 520
8309
 521
8315
 464
8321
 470
8326
 493
8332
 535
8337
 510
8342
 494
8348
 486
8353
 531
8359
 470
8365
 515
8370
 477
8376
 505
8381
 521
8386
 473
8392
 486
8397
 482
8403
 515
8409
 541
8414
 439
8420
 526
8425
 482
8431
 461
8436
 484
8441
 485
8448
 527
8453
 524
8458
 479
8464
 553
8469
 451
8475
 465
8480
 482
8485
 507
8492
 505
8497
 497
8502
 497
8508
 509
8513
 458
8519
 475
8524
 480
8529
 502
8536
 482
8541
 495
8546
 479
8552
 503
8557
 493
8563
 477
8568
 482
8573
 495
8580
 498
8585
 482
8590
 483
8596
 493
8601
 483
8607
 487
8612
 488
8617
 484
8624
 490
8629
 483
8635
 492
8640
 488
8645
 492
8651
 484
8656
 486
8662
 487
8668
 487
8673
 488
8679
 487
8684
 487
8689
 487
8695
 488
8700
 488
8706
 489
8712
 488
8717
 486
8723
 487
8728
 486
8733
 487
8739
 487
8744
 488
8750
 487
8756
 489
8761
 489
8767
 488
8772
 488
8777
 489
8783
 489
8788
 490
8795
 490
8800
 488
8805
 487
8811
 489
8816
 489
8821
 491
8827
 490
8833
 490
8839
 490
8844
 491
8849
 491
8855
 491
8860
 493
8865
 491
8871
 488
8877
 490
8883
 491
8888
 491
8893
 491
8899
 491
8904
 492
8909
 490
8915
 492
8921
 492
8927
 492
8932
 492
8937
 491
8943
 492
8948
 493
8954
 492
8960
 493
8965
 492
8971
 493
8976
 494
8981
 491
8987
 495
8992
 494
8998
 490
9004
 492
9009
 493
9015
 495
9020
 493
9025
 492
9031
 492
9036
 495
9042
 494
9048
 495
9053
 494
9059
 496
9064
 492
9069
 492
9075
 493
9080
 493
9086
 494
9092
 495
9097
 493
9103
 494
9108
 495
9114
 495
9119
 495
9124
 494
9131
 494
9136
 495
9141
 493
9147
 494
9152
 495
9158
 494
9163
 494
9168
 492
9175
 494
9180
 494
9185
 495
9191
 494
9196
 493
9202
 495
9207
 498
9212
 493
9219
 493
9224
 495
9229
 494
9235
 494
9240
 495
9246
 494
9251
 493
9256
 494
9263
 494
9268
 495
9274
 495
9279
 494
9284
 494
9290
 495
9295
 495
9300
 494
9307
 494
9312
 497
9318
 495
9323
 494
9328
 495
9334
 494
9339
 495
9345
 496
9351
 494
9356
 494
9362
 495
9367
 495
9372
 495
9378
 495
9383
 497
9389
 494
9395
 495
9400
 495
9406
 496
9411
 496
9416
 494
9422
 495
9427
 495
9433
 495
9439
 495
9444
 496
9450
 496
9455
 495
9460
 496
9466
 495
9472
 497
9478
 495
9483
 494
9488
 495
9494
 496
9499
 494
9504
 495
9510
 495
9516
 495
9522
 495
9527
 495
9532
 496
9538
 496
9543
 495
9548
 495
9554
 496
9560
 496
9566
 496
9571
 495
9576
 494
9582
 495
9587
 495
9592
 497
9598
 496
9604
 494
9610
 496
9615
 495
9620
 495
9626
 497
9631
 496
9637
 495
9643
 495
9648
 495
9654
 495
9659
 494
9664
 496
9670
 495
9675
 495
9681
 495
9687
 495
9692
 495
9698
 496
9703
 495
9708
 495
9714
 495
9719
 497
9725
 495
9731
 495
9736
 494
9742
 494
9747
 494
9752
 495
9758
 495
9763
 497
9769
 495
9775
 495
9780
 495
9786
 494
9791
 495
9797
 495
9802
 496
9807
 495
9814
 494
9819
 495
9824
 495
9830
 496
9835
 496
9841
 494
9846
 494
9851
 495
9858
 495
9863
 495
9868
 495
9874
 495
9879
 494
9885
 495
9890
 495
9895
 494
9902
 494
9907
 494
9912
 495
9918
 495
9923
 495
9929
 495
9934
 494
9939
 494
9946
 495
9951
 497
9957
 496
9962
 494
9967
 495
9973
 494
9978
 494
9984
 496
9990
 495
9995
 495
10001
 494
10006
 494
10011
 495
10017
 494
10022
 495
10029
 495
10034
 494
10040
 495
10045
 494
10050
 495
10056
 495
10061
 495
10067
 494
10073
 494
10078
 495
10084
 494
10089
 495
10095
 494
10100
 496
10106
 495
10112
 495
10117
 495
10123
 493
10128
 496
10134
 495
10139
 493
10145
 495
10150
 495
10156
 495
10162
 494
10167
 494
10173
 494
10178
 494
10184
 495
10189
 494
10194
 496
10201
 494
10206
 493
10212
 494
10217
 494
10223
 496
10228
 494
10233
 496
10240
 493
10245
 493
10251
 495
10256
 495
10262
 495
10267
 494
10272
 493
10278
 493
10284
 494
10290
 494
10295
 496
10300
 494
10306
 494
10311
 494
10317
 493
10322
 495
10329
 495
10334
 494
10339
 494
10345
 495
10350
 497
10356
 498
10361
 495
10368
 489
10373
 496
10378
 494
10384
 494
10389
 495
10395
 492
10400
 495
10406
 496
10412
 493
10417
 495
10423
 494
10428
 495
10434
 497
10439
 497
10444
 498
10450
 499
10456
 509
10462
 506
10467
 488
10473
 488
10478
 504
10483
 509
10489
 512
10494
 488
10501
 521
10506
 502
10512
 491
10517
 500
10522
 500
10528
 488
10533
 505
10540
 482
10545
 493
10551
 536
10556
 513
10561
 468
10567
 470
10572
 496
10578
 510
10584
 492
10589
 515
10595
 474
10600
 486
10606
 480
10611
 491
10617
 528
10622
 479
10628
 506
10634
 538
10639
 477
10645
 474
10650
 484
10656
 504
10661
 513
10667
 501
10673
 471
10678
 478
10684
 486
10689
 505
10695
 502
10700
 467
10705
 477
10712
 499
10717
 519
10723
 460
10728
 523
10734
 509
10739
 536
10744
 482
10750
 456
10756
 476
10762
 502
10767
 498
10773
 488
10778
 495
10783
 545
10789
 488
10795
 450
10801
 462
10806
 508
10811
 522
10817
 456
10822
 482
10828
 571
10833
 460
10840
 479
10845
 502
10850
 489
10856
 531
10861
 465
10867
 510
10872
 501
10878
 500
10884
 468
10889
 456
10895
 484
10900
 492
10906
 525
10911
 506
10917
 490
10923
 521
10928
 482
10934
 466
10939
 498
10945
 476
10950
 530
10956
 459
10961
 469
10967
 530
10973
 462
10978
 498
10984
 489
10989
 498
10995
 504
11000
 483
11005
 468
11012
 468
11017
 523
11023
 497
11028
 450
11033
 458
11039
 490
11044
 502
11051
 515
11056
 524
11062
 467
11067
 537
11072
 474
11078
 501
11083
 484
11089
 475
11095
 523
11101
 532
11106
 473
11111
 481
11117
 494
11122
 528
11128
 463
11133
 507
11140
 456
11145
 495
11150
 503
11156
 508
11161
 483
11167
 496
11172
 462
11179
 504
11184
 463
11189
 498
11195
 516
11200
 494
11206
 512
11211
 475
11217
 486
11223
 481
11228
 526
11234
 479
11239
 442
11245
 484
11250
 530
11255
 487
11261
 508
11267
 496
11273
 463
11278
 503
11284
 553
11289
 491
11294
 461
11300
 487
11305
 484
11312
 540
11317
 470
11323
 468
11328
 468
11333
 497
11339
 505
11344
 499
11351
 464
11356
 479
11362
 488
11367
 460
11372
 509
11378
 489
11383
 521
11389
 427
11395
 498
11401
 548
11406
 482
11411
 494
11417
 451
11422
 499
11428
 533
11433
 502
11440
 510
11445
 458
11450
 472
11456
 474
11461
 509
11467
 500
11472
 480
11478
 502
11484
 520
11489
 451
11495
 547
11500
 513
11506
 433
11511
 474
11516
 494
11523
 532
11528
 446
11534
 471
11539
 535
11545
 461
11550
 494
11555
 487
11561
 489
11567
 480
11573
 487
11578
 503
11584
 519
11589
 476
11594
 464
11600
 497
11606
 494
11612
 496
11617
 483
11623
 481
11628
 484
11633
 485
11639
 486
11644
 487
11651
 489
11656
 486
11662
 489
11667
 498
11672
 496
11678
 476
11683
 485
11689
 492
11695
 482
11700
 484
11706
 486
11711
 487
11717
 486
11722
 487
11728
 487
11734
 487
11739
 487
11745
 486
11750
 487
11756
 487
11761
 487
11767
 493
11772
 489
11778
 483
11784
 489
11789
 487
11795
 487
11800
 486
11806
 489
11811
 488
11816
 488
11823
 489
11828
 490
11834
 490
11839
 488
11845
 489
11850
 489
11855
 491
11862
 490
11867
 492
11873
 492
11878
 484
11884
 489
11889
 489
11894
 488
11900
 489
11906
 491
11912
 490
11917
 489
11922
 490
11928
 491
11933
 490
11939
 491
11944
 491
11951
 491
11956
 492
11961
 489
11967
 493
11972
 489
11978
 490
11983
 491
11990
 492
11995
 491
12000
 490
12006
 491
12011
 492
12017
 491
12022
 491
12028
 491
12034
 493
12039
 491
12045
 490
12050
 492
12056
 491
12061
 493
12067
 490
12072
 492
12078
 492
12084
 494
12089
 491
12095
 492
12100
 492
12106
 493
12111
 493
12116
 492
12123
 492
12128
 493
12134
 493
12139
 492
12145
 494
12150
 493
12155
 492
12162
 492
12167
 492
12173
 492
12178
 493
12183
 494
12189
 493
12194
 492
12200
 492
12206
 493
12212
 493
12217
 492
12222
 492
12228
 494
12233
 493
12239
 493
12244
 493
12251
 493
12256
 495
12261
 493
12267
 494
12272
 494
12278
 492
12283
 493
12290
 493
12295
 492
12300
 493
12306
 493
12311
 493
12317
 494
12322
 494
12328
 493
12334
 493
12339
 494
12345
 494
12350
 494
12356
 494
12361
 494
12367
 496
12372
 494
12378
 492
12384
 494
12389
 493
12395
 494
12400
 494
12405
 495
12411
 494
12417
 494
12423
 495
12428
 494
12434
 494
12439
 496
12444
 494
12450
 496
12455
 495
12462
 493
12467
 494
12473
 493
12478
 494
12483
 494
12489
 494
12494
 495
12500
 494
12506
 494
12512
 495
12517
 494
12522
 495
12528
 495
12533
 494
12539
 495
12545
 495
12551
 495
12556
 495
12561
 493
12567
 494
12572
 494
12578
 494
12583
 494
12590
 495
12595
 495
12600
 496
12606
 495
12611
 495
12617
 495
12622
 495
12628
 495
12634
 493
12639
 495
12645
 494
12650
 495
12656
 494
12661
 494
12666
 495
12673
 496
12678
 496
12684
 495
12689
 494
12695
 494
12700
 497
12705
 497
12711
 493
12717
 493
12723
 495
12728
 494
12734
 494
12739
 495
12744
 495
12750
 496
12755
 494
12762
 495
12767
 495
12773
 495
12778
 494
12783
 495
12789
 496
12794
 496
12801
 495
12806
 496
12812
 495
12817
 494
12822
 495
12828
 495
12833
 494
12839
 494
12845
 494
12851
 495
12856
 496
12861
 495
12867
 495
12872
 496
12878
 494
12883
 497
12889
 495
12895
 494
12900
 494
12906
 495
12911
 500
12917
 492
12922
 493
12928
 495
12934
 495
12939
 494
12945
 494
12950
 494
12956
 493
12961
 495
12966
 495
12973
 496
12978
 495
12984
 495
12989
 494
12995
 494
13000
 495
13005
 495
13011
 497
13017
 495
13023
 496
13028
 494
13033
 494
13039
 496
13044
 495
13050
 495
13056
 493
13062
 494
13067
 495
13072
 495
13078
 499
13083
 495
13089
 492
13094
 494
13101
 496
13106
 496
13111
 495
13117
 495
13122
 496
13128
 495
13133
 496
13139
 496
13145
 496
13150
 495
13156
 496
13161
 499
13167
 496
13172
 494
13177
 496
13184
 496
13189
 496
13195
 496
13200
 498
13206
 495
13211
 495
13216
 495
13222
 498
13228
 497
13234
 496
13239
 496
13245
 495
13250
 496
13255
 496
13261
 500
13266
 498
13273
 495
13278
 495
13284
 496
13289
 499
13294
 495
13300
 496
13305
 495
13312
 498
13317
 496
13323
 495
13328
 497
13333
 497
13339
 495
13344
 497
13350
 496
13356
 495
13362
 497
13367
 497
13372
 497
13378
 497
13383
 495
13389
 496
13394
 496
13400
 497
13406
 496
13411
 495
13417
 495
13422
 498
13428
 497
13433
 496
13438
 495
13445
 497
13450
 497
13456
 498
13461
 496
13467
 496
13472
 495
13477
 494
13484
 496
13489
 495
13495
 496
13500
 495
13506
 496
13511
 497
13516
 497
13522
 495
13528
 494
13534
 495
13539
 497
13545
 497
13550
 495
13555
 495
13561
 496
13566
 496
13573
 495
13578
 499
13584
 496
13589
 496
13594
 495
13600
 494
13605
 498
13612
 499
13617
 493
13622
 495
13628
 496
13633
 499
13639
 500
13644
 494
13650
 491
13656
 493
13661
 503
13667
 505
13672
 498
13678
 492
13683
 502
13689
 490
13694
 507
13700
 496
13706
 518
13711
 513
13717
 514
13722
 508
13728
 459
13733
 542
13739
 505
13745
 468
13750
 517
13756
 496
13761
 483
13767
 502
13772
 490
13777
 508
13784
 486
13789
 495
13795
 545
13800
 495
13805
 482
13811
 533
13816
 475
13822
 468
13828
 483
13834
 500
13839
 560
13844
 493
13850
 451
13855
 489
13861
 502
13867
 507
13873
 491
13878
 487
13883
 495
13889
 483
13894
 499
13900
 490
13905
 459
13912
 509
13917
 520
13922
 487
13928
 488
13933
 476
13939
 481
13944
 525
13950
 507
13956
 463
13961
 514
13967
 470
13972
 483
13978
 495
13983
 495
13989
 509
13995
 490
14000
 491
14006
 511
14011
 466
14017
 538
14022
 469
14027
 490
14033
 489
14039
 472
14045
 539
14050
 520
14056
 502
14061
 493
14066
 485
14072
 492
14077
 496
14084
 544
14089
 461
14095
 496
14100
 469
14105
 508
14111
 494
14116
 541
14123
 471
14128
 522
14134
 467
14139
 473
14144
 510
14150
 497
14155
 536
14161
 508
14167
 474
14173
 479
14178
 546
14183
 446
14189
 496
14194
 499
14200
 498
14205
 542
14212
 501
14217
 480
14222
 449
14228
 475
14233
 542
14239
 485
14244
 498
14251
 469
14256
 505
14261
 510
14267
 522
14272
 453
14278
 506
14283
 500
14288
 509
14295
 524
14300
 452
14306
 476
14311
 506
14317
 459
14322
 495
14327
 472
14333
 542
14339
 495
14345
 495
14350
 477
14356
 484
14361
 491
14366
 492
14372
 502
14377
 553
14384
 477
14389
 502
14395
 486
14400
 476
14405
 485
14411
 541
14416
 477
14423
 494
14428
 478
14434
 485
14439
 450
14444
 523
14450
 534
14455
 473
14461
 492
14467
 495
14473
 458
14478
 519
14483
 504
14489
 502
14494
 528
14500
 433
14505
 514
14511
 466
14517
 497
14522
 474
14528
 537
14533
 524
14539
 428
14544
 511
14550
 471
14556
 518
14561
 558
14567
 494
14572
 461
14578
 501
14583
 458
14588
 496
14595
 477
14600
 523
14606
 476
14611
 495
14617
 492
14622
 500
14627
 531
14633
 418
14639
 474
14645
 509
14650
 494
14656
 520
14661
 481
14666
 468
14672
 461
14678
 512
14684
 502
14689
 525
14695
 523
14700
 452
14705
 497
14711
 491
14716
 495
14723
 512
14728
 510
14734
 462
14739
 466
14744
 488
14750
 496
14755
 487
14761
 486
14767
 497
14772
 483
14778
 496
14783
 500
14789
 494
14794
 493
14800
 454
14806
 483
14811
 482
14817
 493
14822
 492
14828
 485
14833
 485
14839
 489
14844
 489
14850
 504
14856
 497
14861
 475
14867
 489
14872
 484
14878
 495
14883
 486
14888
 484
14895
 486
14900
 489
14906
 487
14911
 488
14917
 489
14922
 489
14927
 488
14934
 488
14939
 491
14945
 490
14950
 491
14956
 489
14961
 488
14966
 491
14972
 486
14978
 487
14984
 487
14989
 489
14994
 489
15000
 490
15005
 490
15011
 489
15016
 489
15023
 490
15028
 490
15033
 489
15039
 490
15044
 490
15050
 491
15055
 496
15062
 490
15067
 486
15072
 489
15078
 490
15083
 490
15089
 489
15094
 489
15100
 490
15106
 491
15111
 490
15117
 490
15122
 491
15128
 491
15133
 491
15139
 490
15144
 492
15150
 493
15156
 493
15161
 494
15167
 489
15172
 490
15178
 489
15183
 491
15188
 490
15195
 492
15200
 492
15206
 493
15211
 492
15217
 493
15222
 491
15227
 493
15234
 493
15239
 492
15245
 493
15250
 491
15255
 496
15261
 493
15266
 489
15272
 491
15278
 491
15284
 492
15289
 492
15294
 492
15300
 494
15305
 492
15311
 492
15316
 493
15323
 493
15328
 494
15333
 493
15339
 491
15344
 491
15350
 493
15355
 493
15362
 493
15367
 494
15372
 491
15378
 492
15383
 493
15389
 495
15394
 494
15400
 494
15406
 494
15411
 493
15417
 493
15422
 494
15428
 493
15433
 495
15439
 494
15444
 492
15450
 492
15456
 493
15461
 494
15467
 493
15472
 494
15477
 497
15483
 498
15489
 489
15495
 492
15500
 494
15506
 494
15511
 494
15516
 494
15522
 495
15527
 500
15534
 493
15539
 492
15545
 494
15550
 494
15555
 494
15561
 494
15566
 497
15572
 494
15578
 494
15584
 494
15589
 494
15594
 495
15600
 496
15605
 495
15611
 495
15617
 494
15623
 497
15628
 501
15633
 494
15639
 491
15644
 493
15650
 494
15655
 494
15662
 494
15667
 495
15672
 494
15678
 495
15683
 495
15689
 496
15694
 496
15700
 495
15706
 494
15711
 495
15717
 495
15722
 495
15728
 496
15733
 495
15738
 499
15745
 498
15750
 491
15756
 492
15761
 494
15767
 495
15772
 494
15777
 495
15783
 494
15789
 495
15795
 495
15800
 495
15806
 496
15811
 494
15816
 494
15822
 495
15827
 499
15834
 495
15839
 493
15845
 494
15850
 495
15855
 494
15861
 495
15866
 495
15873
 495
15878
 498
15884
 494
15889
 493
15894
 494
15900
 495
15905
 495
15911
 498
15917
 495
15923
 495
15928
 495
15933
 494
15939
 495
15944
 495
15950
 496
15955
 497
15961
 497
15967
 494
15972
 493
15978
 495
15983
 495
15989
 495
15994
 501
16000
 496
16006
 492
16011
 494
16017
 495
16022
 496
16028
 495
16033
 495
16038
 496
16045
 495
16050
 496
16056
 495
16061
 495
16067
 495
16072
 495
16077
 495
16083
 495
16089
 494
16095
 498
16100
 494
16106
 494
16111
 494
16116
 494
16122
 495
16128
 498
16134
 495
16139
 494
16144
 495
16150
 494
16155
 493
16161
 495
16166
 495
16173
 496
16178
 494
16183
 495
16189
 494
16194
 495
16200
 497
16205
 495
16211
 494
16217
 497
16222
 497
16228
 494
16233
 494
16239
 494
16244
 494
16250
 495
16256
 495
16261
 495
16267
 495
16272
 495
16278
 495
16283
 495
16288
 496
16294
 496
16300
 497
16306
 494
16311
 494
16317
 496
16322
 494
16327
 493
16333
 495
16338
 495
16345
 495
16350
 495
16356
 494
16361
 496
16366
 495
16372
 495
16377
 496
16384
 497
16389
 497
16395
 495
16400
 494
16405
 493
16411
 494
16416
 494
16422
 495
16428
 496
16433
 494
16439
 495
16444
 495
16450
 495
16455
 496
16461
 496
16466
 496
16472
 494
16478
 495
16483
 498
16489
 495
16494
 493
16500
 494
16505
 495
16510
 494
16517
 495
16522
 495
16528
 495
16533
 495
16539
 495
16544
 496
16549
 494
16556
 494
16561
 495
16567
 494
16572
 497
16578
 494
16583
 494
16588
 494
16594
 494
16600
 494
16606
 495
16611
 495
16617
 495
16622
 495
16627
 494
16633
 494
16638
 495
16645
 496
16650
 495
16655
 494
16661
 494
16666
 494
16672
 497
16677
 495
16684
 494
16689
 494
16694
 494
16700
 495
16705
 495
16711
 495
16716
 495
16722
 495
16728
 495
16733
 495
16739
 496
16744
 495
16750
 493
16755
 495
16761
 495
16766
 497
16772
 494
16778
 494
16783
 494
16789
 494
16794
 495
16800
 498
16805
 494
16811
 495
16817
 495
16822
 495
16828
 494
16833
 495
16838
 496
16844
 496
16849
 494
16856
 495
16861
 495
16867
 494
16872
 495
16877
 494
16883
 496
16888
 496
16894
 495
16900
 495
16906
 495
16911
 494
16916
 495
16922
 495
16927
 494
16933
 496
16939
 495
16945
 494
16950
 494
16955
 496
16961
 496
16966
 494
16972
 493
16977
 495
16983
 495
16989
 494
16994
 495
17000
 497
17005
 494
17011
 493
17016
 495
17021
 496
17028
 494
17033
 497
17039
 493
17044
 493
17050
 494
17055
 495
17060
 496
17067
 494
17072
 496
17078
 497
17083
 495
17089
 493
17094
 493
17099
 495
17105
 495
17111
 495
17117
 494
17122
 494
17128
 494
17133
 495
17138
 496
17144
 493
17149
 496
17156
 495
17161
 493
17167
 493
17172
 495
17177
 494
17183
 494
17188
 493
17195
 494
17200
 494
17205
 494
17211
 494
17216
 496
17222
 494
17227
 493
17233
 495
17239
 496
17244
 494
17250
 494
17255
 493
17261
 494
17266
 494
17272
 495
17277
 493
17283
 493
17289
 493
17294
 495
17300
 496
17305
 494
17311
 494
17316
 495
17321
 496
17328
 494
17333
 493
17339
 492
17344
 493
17350
 494
17355
 494
17360
 494
17367
 493
17372
 495
17378
 496
17383
 495
17389
 493
17394
 494
17399
 494
17405
 493
17411
 493
17417
 494
17422
 494
17427
 495
17433
 494
17438
 493
17444
 494
17449
 493
17456
 494
17461
 494
17466
 494
17472
 494
17477
 495
17483
 494
17488
 492
17495
 493
17500
 493
17505
 495
17511
 494
17516
 494
17522
 495
17527
 493
17533
 492
17539
 495
17544
 494
17550
 493
17555
 493
17561
 493
17566
 494
17572
 494
17577
 494
17583
 496
17589
 494
17594
 493
17600
 495
17605
 494
17611
 493
17616
 494
17622
 492
17628
 494
17633
 494
17639
 493
17644
 495
17650
 493
17655
 491
17660
 494
17667
 494
17672
 496
17678
 495
17683
 494
17688
 492
17694
 493
17699
 494
17705
 493
17711
 493
17717
 494
17722
 494
17727
 493
17733
 495
17738
 495
17744
 493
17750
 493
17756
 493
17761
 493
17766
 494
17772
 497
17777
 493
17783
 491
17788
 494
17795
 493
17800
 494
17805
 494
17811
 494
17816
 493
17822
 493
17827
 494
17833
 494
17839
 494
17844
 491
17850
 492
17855
 494
17861
 494
17866
 492
17872
 493
17878
 494
17883
 494
17889
 494
17894
 494
17900
 494
17905
 494
17910
 491
17916
 493
17922
 494
17928
 492
17933
 494
17939
 494
17944
 492
17949
 492
17955
 493
17960
 494
17967
 494
17972
 494
17978
 494
17983
 493
17988
 493
17994
 493
17999
 493
18006
 492
18011
 494
18017
 494
18022
 493
18027
 492
18033
 493
18038
 494
18044
 494
18050
 494
18056
 493
18061
 493
18066
 491
18072
 493
18077
 494
18083
 493
18088
 491
18095
 494
18100
 493
18105
 493
18111
 494
18116
 494
18122
 491
18127
 492
18132
 492
18139
 492
18144
 494
18150
 495
18155
 491
18161
 491
18166
 492
18171
 492
18178
 494
18183
 495
18189
 493
18194
 493
18200
 492
18205
 493
18210
 492
18216
 493
18222
 493
18228
 492
18233
 494
18239
 494
18244
 492
18249
 494
18255
 493
18260
 492
18267
 492
18272
 492
18278
 493
18283
 493
18288
 492
18294
 492
18299
 493
18306
 493
18311
 494
18317
 493
18322
 493
18327
 492
18333
 493
18338
 495
18344
 491
18350
 491
18356
 494
18361
 494
18366
 494
18372
 494
18377
 493
18383
 497
18388
 495
18394
 489
18400
 490
18405
 510
18411
 501
18416
 498
18422
 506
18427
 499
18433
 511
18439
 514
18444
 529
18450
 500
18455
 489
18461
 507
18466
 530
18471
 489
18478
 455
18483
 485
18489
 516
18494
 516
18500
 484
18505
 460
18510
 526
18516
 549
18522
 485
18528
 434
18533
 492
18539
 501
18544
 510
18549
 485
18555
 516
18561
 468
18567
 500
18572
 507
18578
 486
18583
 499
18588
 507
18594
 479
18599
 498
18606
 487
18611
 463
18616
 532
18622
 490
18627
 532
18633
 470
18638
 476
18644
 500
18650
 536
18655
 476
18661
 497
18666
 490
18672
 471
18677
 520
18683
 513
18689
 537
18694
 445
18700
 464
18705
 532
18711
 557
18716
 475
18722
 476
18727
 522
18733
 526
18739
 499
18744
 450
18750
 537
18755
 436
18761
 536
18766
 443
18771
 539
18778
 504
18783
 487
18789
 485
18794
 489
18800
 509
18805
 481
18810
 497
18817
 495
18822
 500
18828
 472
18833
 491
18839
 555
18844
 484
18849
 485
18855
 522
18861
 516
18867
 504
18872
 426
18877
 491
18883
 489
18888
 494
18894
 519
18899
 504
18906
 461
18911
 488
18916
 515
18922
 478
18927
 497
18933
 535
18938
 441
18945
 532
18950
 446
18955
 505
18961
 506
18966
 446
18972
 528
18977
 479
18983
 501
18989
 507
18994
 487
19000
 468
19005
 511
19011
 475
19016
 462
19022
 597
19027
 506
19033
 443
19039
 500
19044
 495
19050
 528
19055
 466
19061
 449
19066
 519
19072
 508
19078
 490
19083
 475
19089
 493
19094
 475
19099
 492
19105
 469
19110
 449
19117
 505
19122
 501
19128
 508
19133
 494
19138
 473
19144
 460
19149
 508
19155
 473
19161
 520
19167
 451
19172
 491
19177
 506
19183
 496
19188
 471
19194
 493
19200
 490
19206
 480
19211
 490
19216
 474
19222
 534
19227
 440
19233
 507
19238
 474
19245
 480
19250
 508
19255
 550
19261
 424
19266
 461
19272
 486
19277
 490
19283
 493
19289
 494
19294
 486
19300
 485
19305
 487
19311
 495
19316
 490
19321
 483
19328
 515
19333
 489
19339
 500
19344
 464
19350
 473
19355
 483
19360
 488
19366
 488
19372
 489
19378
 489
19383
 489
19389
 490
19394
 490
19399
 492
19405
 494
19410
 500
19417
 478
19422
 484
19428
 490
19433
 487
19438
 492
19444
 489
19449
 484
19456
 487
19461
 488
19467
 489
19472
 489
19477
 488
19483
 489
19488
 490
19494
 491
19500
 489
19506
 489
19511
 490
19516
 491
19522
 497
19527
 490
19533
 484
19538
 486
19545
 489
19550
 490
19555
 488
19561
 490
19566
 491
19572
 489
19577
 490
19582
 490
19589
 493
19594
 494
19600
 490
19605
 489
19611
 493
19616
 504
19621
 487
19628
 485
19633
 486
19639
 493
19644
 495
19650
 496
19655
 493
19660
 486
19666
 488
19672
 492
19678
 494
19683
 490
19689
 501
19694
 501
19699
 491
19705
 487
19710
 494
19717
 500
19722
 505
19728
 481
19733
 482
19738
 502
19744
 497
19749
 496
19756
 492
19761
 482
19767
 484
19772
 491
19777
 501
19783
 508
19788
 495
19794
 501
19800
 496
19805
 492
19811
 532
19816
 475
19822
 489
19827
 503
19833
 505
19838
 503
19844
 488
19850
 469
19855
 496
19861
 548
19866
 503
19872
 468
19877
 528
19883
 467
19889
 509
19894
 509
19900
 493
19905
 480
19911
 519
19916
 505
19921
 472
19928
 481
19933
 506
19939
 456
19944
 511
19950
 483
19955
 474
19960
 513
19966
 501
19972
 477
19978
 508
19983
 473
19989
 473
19994
 486
19999
 491
20005
 484
20011
 492
20017
 491
20022
 493
20028
 493
20033
 493
20038
 493
20044
 492
20049
 494
20056
 493
20061
 499
20066
 492
20072
 492
20077
 487
20083
 502
20088
 491
20094
 487
20100
 494
20105
 492
20111
 491
20116
 492
20122
 493
20127
 492
20133
 493
20139
 492
20144
 492
20150
 493
20155
 493
20161
 493
20166
 491
20172
 491
20177
 492
20183
 491
20189
 491
20194
 492
20200
 494
20205
 491
20211
 491
20216
 493
20221
 492
20228
 492
20233
 498
20239
 495
20244
 487
20250
 492
20255
 495
20260
 494
20267
 490
20272
 491
20278
 492
20283
 493
20288
 493
20294
 495
20299
 494
20305
 494
20311
 496
20317
 500
20322
 492
20327
 505
20333
 494
20338
 492
20344
 494
20349
 498
20356
 495
20361
 487
20366
 507
20372
 501
20377
 490
20383
 491
20388
 493
20395
 518
20400
 516
20405
 484
20411
 494
20416
 502
20422
 514
20427
 497
20433
 493
20439
 483
20444
 540
20450
 493
20455
 468
20461
 489
20466
 476
20472
 508
20477
 474
20483
 527
20489
 545
20494
 457
20500
 451
20505
 528
20510
 468
20516
 510
20521
 485
20528
 485
20533
 481
20539
 474
20544
 503
20549
 517
20555
 509
20560
 482
20567
 476
20572
 538
20578
 478
20583
 500
20588
 495
20594
 477
20599
 541
20605
 491
20611
 475
20617
 503
20622
 480
20627
 505
20633
 488
20638
 477
20644
 496
20649
 483
20656
 490
20661
 488
20666
 491
20672
 492
20677
 491
20683
 493
20688
 495
20694
 495
20700
 489
20705
 490
20711
 489
20716
 491
20722
 494
20727
 486
20732
 489
20739
 491
20744
 490
20750
 490
20755
 492
20761
 490
20766
 492
20771
 494
20777
 489
20783
 488
20789
 489
20794
 490
20800
 490
20805
 492
20810
 491
20816
 490
20822
 492
20828
 490
20833
 490
20839
 490
20844
 490
20849
 494
20855
 491
20860
 489
20867
 495
20872
 496
20877
 490
20883
 490
20888
 490
20894
 489
20899
 489
20905
 502
20911
 488
20916
 497
20922
 500
20927
 482
20933
 487
20938
 508
20944
 478
20950
 489
20955
 529
20961
 489
20966
 501
20972
 506
20977
 499
20983
 451
20988
 521
20994
 490
21000
 501
21005
 505
21011
 511
21016
 510
21022
 524
21027
 476
21032
 464
21039
 500
21044
 505
21050
 483
21055
 453
21060
 494
21066
 507
21071
 494
21078
 501
21083
 479
21089
 527
21094
 509
21099
 525
21105
 461
21110
 515
21116
 502
21122
 462
21128
 526
21133
 491
21138
 495
21144
 489
21149
 470
21155
 501
21160
 503
21167
 523
21172
 474
21177
 478
21183
 467
21188
 491
21194
 489
21199
 519
21206
 455
21211
 605
21216
 403
21222
 462
21227
 480
21233
 487
21238
 492
21244
 492
21250
 492
21255
 492
21261
 492
21266
 492
21272
 489
21277
 495
21282
 510
21288
 492
21294
 479
21300
 488
21305
 490
21311
 491
21316
 491
21321
 492
21327
 492
21332
 491
21339
 493
21344
 491
21350
 492
21355
 492
21360
 492
21366
 492
21371
 492
21378
 492
21383
 491
21389
 494
21394
 494
21399
 489
21405
 491
21410
 491
21416
 492
21422
 492
21428
 493
21433
 493
21438
 492
21444
 493
21449
 493
21455
 493
21460
 493
21467
 492
21472
 493
21477
 493
21483
 494
21488
 493
21494
 494
21499
 493
21505
 496
21511
 495
21516
 490
21522
 491
21527
 492
21533
 493
21538
 493
21543
 493
21550
 493
21555
 493
21561
 493
21566
 493
21572
 493
21577
 493
21582
 494
21588
 494
21594
 493
21600
 493
21605
 494
21611
 494
21616
 494
21621
 494
21627
 493
21633
 494
21639
 494
21644
 494
21650
 494
21655
 494
21660
 494
21666
 496
21671
 496
21678
 493
21683
 492
21689
 492
21694
 493
21699
 494
21705
 494
21710
 494
21716
 494
21722
 494
21728
 494
21733
 494
21738
 494
21744
 494
21749
 494
21755
 494
21761
 493
21766
 493
21772
 493
21777
 493
21783
 493
21788
 493
21794
 493
21799
 493
21805
 493
21811
 493
21816
 493
21822
 492
21827
 493
21833
 493
21838
 493
21843
 493
21850
 492
21855
 493
21861
 492
21866
 493
21872
 493
21877
 493
21882
 493
21889
 492
21894
 492
21900
 492
21905
 493
21911
 493
21916
 493
21921
 492
21927
 493
21933
 493
21939
 493
21944
 493
21950
 493
21955
 493
21960
 492
21966
 493
21971
 493
21978
 494
21983
 494
21988
 493
21994
 493
21999
 494
22005
 492
22010
 493
22017
 493
22022
 493
22027
 493
22033
 493
22038
 493
22044
 493
22049
 494
22055
 494
22061
 493
22066
 494
22072
 494
22077
 495
22083
 495
22088
 494
22094
 495
22099
 494
22105
 495
22111
 495
22116
 495
22122
 494
22127
 494
22133
 495
22138
 495
22144
 494
22150
 495
22155
 494
22161
 495
22166
 494
22172
 494
22177
 494
22182
 494
22189
 494
22194
 494
22200
 494
22205
 494
22210
 494
22216
 494
22221
 494
22227
 494
22233
 494
22239
 494
22244
 494
22249
 494
22255
 494
22260
 494
22266
 493
22272
 493
22278
 494
22283
 493
22288
 493
22294
 493
22299
 493
22305
 493
22310
 493
22317
 493
22322
 493
22327
 493
22333
 493
22338
 493
22344
 493
22349
 493
22355
 493
22361
 493
22366
 493
22372
 493
22377
 492
22383
 492
22388
 493
22394
 492
22400
 492
22405
 492
22411
 492
22416
 492
22422
 492
22427
 492
22432
 492
22438
 492
22444
 492
22450
 492
22455
 492
22461
 491
22466
 492
22471
 492
22477
 492
22482
 492
22489
 492
22494
 492
22500
 491
22505
 492
22510
 492
22516
 491
22521
 491
22528
 491
22533
 492
22539
 492
22544
 491
22549
 492
22555
 491
22560
 491
22566
 491
22572
 491
22578
 491
22583
 491
22588
 491
22594
 492
22599
 491
22605
 492
22610
 491
22617
 491
22622
 491
22627
 491
22633
 491
22638
 491
22644
 491
22649
 492
22654
 491
22661
 491
22666
 491
22672
 492
22677
 491
22683
 491
22688
 491
22693
 491
22700
 491
22705
 491
22711
 491
22716
 492
22722
 491
22727
 492
22732
 491
22738
 492
22744
 492
22750
 492
22755
 492
22761
 491
22766
 492
22771
 491
22777
 492
22782
 491
22789
 492
22794
 491
22800
 491
22805
 491
22810
 492
22816
 492
22821
 492
22828
 491
22833
 492
22839
 492
22844
 492
22849
 492
22855
 491
22860
 491
22866
 492
22872
 492
22878
 492
22883
 492
22888
 492
22894
 493
22899
 492
22905
 492
22910
 493
22916
 492
22922
 493
22927
 492
22933
 492
22938
 492
22944
 493
22949
 492
22955
 492
22961
 495
22966
 492
22972
 492
22977
 492
22983
 493
22988
 492
22993
 492
23000
 493
23005
 493
23011
 492
23016
 493
23022
 492
23027
 492
23032
 493
23038
 492
23044
 493
23050
 493
23055
 493
23061
 493
23066
 493
23071
 493
23077
 493
23083
 493
23089
 493
23094
 493
23100
 493
23105
 493
23110
 493
23116
 493
23121
 493
23128
 493
23133
 494
23138
 493
23144
 494
23149
 494
23155
 494
23160
 494
23166
 494
23172
 494
23177
 494
23183
 493
23188
 493
23194
 494
23199
 494
23205
 494
23211
 494
23216
 491
23222
 494
23227
 494
23233
 494
23238
 493
23244
 495
23249
 494
23255
 494
23261
 495
23266
 494
23272
 494
23277
 494
23283
 494
23288
 494
23293
 494
23300
 494
23305
 494
23311
 495
23316
 495
23322
 495
23327
 494
23332
 495
23339
 494
23344
 494
23350
 495
23355
 494
23361
 494
23366
 494
23371
 494
23377
 495
23383
 494
23389
 494
23394
 494
23399
 494
23405
 494
23410
 494
23416
 494
23421
 494
23428
 494
23433
 495
23438
 494
23444
 493
23449
 494
23455
 494
23460
 494
23467
 493
23472
 494
23477
 494
23483
 493
23488
 494
23494
 493
23499
 495
23505
 494
23511
 494
23516
 494
23522
 493
23527
 494
23533
 494
23538
 494
23544
 493
23549
 495
23555
 493
23561
 494
23566
 493
23572
 494
23577
 494
23583
 494
23588
 494
23593
 494
23600
 494
23605
 494
23611
 495
23616
 493
23621
 494
23627
 494
23632
 494
23639
 493
23644
 494
23650
 494
23655
 494
23660
 493
23666
 494
23671
 494
23677
 494
23683
 494
23689
 494
23694
 494
23699
 494
23705
 494
23710
 494
23716
 495
23721
 494
23728
 495
23733
 494
23738
 494
23744
 494
23749
 494
23755
 494
23760
 493
23767
 494
23772
 494
23777
 493
23783
 494
23788
 495
23794
 493
23799
 494
23805
 494
23811
 493
23816
 494
23822
 495
23827
 494
23833
 494
23838
 493
23844
 494
23849
 494
23855
 493
23861
 494
23866
 494
23872
 494
23877
 494
23882
 494
23888
 494
23894
 493
23900
 494
23905
 494
23911
 494
23916
 494
23921
 494
23927
 494
23932
 494
23939
 494
23944
 494
23950
 494
23955
 494
23960
 494
23966
 494
23971
 495
23977
 494
23983
 494
23989
 494
23994
 494
23999
 494
24005
 494
24010
 493
24016
 494
24022
 494
24028
 494
24033
 495
24038
 495
24044
 494
24049
 494
24055
 494
24060
 494
24067
 494
