0
 496
5
 496
11
 496
16
 497
21
 497
26
 495
32
 496
37
 496
43
 497
49
 495
54
 495
59
 497
64
 497
70
 497
75
 497
80
 496
87
 497
92
 497
97
 496
102
 497
108
 497
113
 496
118
 497
124
 497
130
 497
135
 497
141
 496
146
 496
151
 496
157
 496
162
 497
167
 497
174
 496
179
 496
185
 496
190
 496
195
 496
201
 496
206
 496
211
 497
218
 497
223
 497
228
 497
234
 498
239
 497
244
 497
250
 496
256
 496
261
 497
267
 496
272
 496
277
 497
283
 496
288
 496
293
 497
300
 497
305
 498
310
 497
316
 497
321
 497
326
 497
332
 497
337
 497
343
 497
349
 496
354
 497
359
 498
365
 497
370
 497
375
 497
381
 498
387
 497
392
 498
398
 497
403
 497
408
 497
414
 498
419
 498
424
 497
431
 498
436
 498
441
 498
447
 498
452
 498
457
 498
463
 498
468
 499
474
 498
480
 498
485
 498
490
 498
496
 500
501
 499
506
 499
513
 499
518
 499
523
 500
529
 499
534
 499
539
 499
545
 499
550
 499
556
 499
562
 498
567
 499
572
 500
578
 499
583
 499
588
 500
594
 500
600
 500
605
 502
611
 501
616
 500
621
 500
627
 500
632
 500
637
 501
644
 500
649
 501
654
 501
660
 501
665
 501
670
 500
676
 501
681
 500
687
 501
693
 501
698
 501
703
 501
709
 500
714
 501
719
 500
726
 500
731
 500
737
 500
742
 501
747
 500
753
 500
758
 501
763
 500
770
 500
775
 500
780
 499
786
 500
791
 501
796
 500
802
 500
807
 501
813
 500
819
 499
824
 499
829
 500
835
 499
840
 499
845
 499
851
 499
857
 500
862
 499
868
 499
873
 497
878
 500
884
 499
889
 498
894
 498
901
 499
906
 499
911
 500
917
 499
922
 499
927
 500
933
 501
939
 499
944
 499
950
 498
955
 500
960
 500
966
 500
971
 500
976
 499
983
 500
988
 499
993
 499
999
 500
1004
 498
1009
 499
1015
 500
1020
 499
1027
 498
1032
 498
1037
 498
1043
 498
1048
 498
1053
 498
1059
 498
1064
 498
1071
 497
1076
 497
1081
 499
1087
 497
1092
 497
1097
 497
1103
 497
1108
 496
1115
 497
1120
 496
1125
 496
1131
 495
1136
 496
1141
 495
1147
 495
1153
 495
1159
 494
1164
 495
1169
 494
1175
 494
1180
 494
1185
 494
1191
 493
1197
 494
1203
 493
1208
 492
1213
 492
1219
 492
1224
 491
1230
 492
1235
 493
1241
 492
1247
 492
1252
 491
1257
 491
1263
 492
1268
 492
1274
 492
1280
 492
1285
 491
1291
 492
1296
 491
1301
 491
1307
 492
1312
 491
1318
 491
1324
 492
1329
 493
1335
 493
1340
 490
1345
 490
1351
 490
1356
 492
1362
 491
1368
 491
1373
 491
1379
 492
1384
 492
1389
 492
1395
 492
1400
 492
1406
 494
1412
 493
1417
 491
1423
 491
1428
 492
1434
 492
1439
 492
1444
 493
1451
 492
1456
 493
1461
 495
1467
 493
1472
 493
1478
 493
1483
 493
1488
 494
1495
 494
1500
 494
1505
 494
1511
 494
1516
 494
1522
 495
1527
 494
1532
 495
1539
 497
1544
 496
1549
 495
1555
 496
1560
 496
1566
 497
1571
 497
1576
 497
1583
 497
1588
 497
1593
 497
1599
 498
1604
 497
1610
 497
1615
 500
1620
 499
1627
 499
1632
 500
1637
 500
1643
 499
1648
 500
1654
 500
1659
 501
1665
 501
1671
 500
1676
 500
1682
 500
1687
 501
1692
 501
1698
 501
1703
 502
1709
 502
1715
 501
1720
 503
1726
 502
1731
 502
1736
 503
1742
 503
1747
 502
1753
 503
1759
 504
1764
 503
1770
 504
1775
 503
1780
 504
1786
 504
1792
 504
1797
 504
1803
 504
1808
 504
1814
 504
1819
 505
1824
 504
1830
 505
1836
 504
1841
 505
1847
 505
1852
 505
1858
 504
1863
 505
1868
 504
1874
 505
1880
 505
1886
 504
1891
 505
1896
 505
1902
 505
1907
 505
1912
 504
1918
 505
1924
 505
1930
 504
1935
 505
1940
 505
1946
 504
1951
 504
1956
 504
1963
 505
1968
 505
1974
 504
1979
 504
1984
 504
1990
 504
1995
 504
2000
 505
2007
 504
2012
 505
2018
 504
2023
 504
2028
 505
2034
 505
2039
 504
2044
 504
2051
 504
2056
 505
2062
 505
2067
 504
2072
 505
2078
 504
2083
 504
2089
 505
2095
 503
2100
 504
2106
 505
2111
 504
2116
 504
2122
 504
2127
 503
2134
 504
2139
 504
2144
 504
2150
 504
2155
 504
2160
 504
2166
 505
2171
 504
2178
 504
2183
 505
2188
 503
2194
 504
2199
 504
2204
 503
2210
 504
2215
 504
2222
 504
2227
 505
2232
 504
2238
 504
2243
 504
2249
 503
2254
 504
2259
 504
2266
 504
2271
 505
2276
 503
2282
 504
2287
 504
2293
 504
2298
 504
2304
 504
2310
 505
2315
 504
2320
 504
2326
 504
2331
 504
2337
 504
2342
 504
2348
 504
2354
 505
2359
 504
2364
 504
2370
 503
2375
 504
2381
 504
2386
 504
2392
 504
2398
 504
2403
 503
2409
 503
2414
 504
2419
 504
2425
 503
2430
 505
2436
 502
2442
 503
2447
 506
2453
 502
2458
 502
2463
 503
2469
 502
2475
 502
2480
 503
2486
 503
2491
 503
2497
 503
2502
 502
2507
 503
2513
 503
2519
 503
2524
 502
2530
 503
2535
 503
2541
 504
2546
 502
2551
 503
2557
 503
2563
 503
2568
 503
2574
 503
2579
 504
2585
 503
2590
 502
2595
 502
2601
 503
2607
 502
2613
 503
2618
 504
2623
 503
2629
 503
2634
 503
2639
 504
2646
 504
2651
 504
2657
 504
2662
 505
2667
 504
2673
 505
2678
 506
2683
 505
2690
 504
2695
 505
2701
 506
2706
 506
2711
 505
2717
 504
2722
 506
2727
 505
2734
 505
2739
 507
2745
 504
2750
 503
2755
 505
2761
 505
2766
 505
2771
 503
2778
 503
2783
 504
2789
 503
2794
 503
2799
 504
2805
 504
2810
 504
2817
 504
2822
 503
2827
 503
2833
 504
2838
 503
2843
 502
2849
 504
2854
 504
2861
 502
2866
 503
2871
 503
2877
 503
2882
 503
2887
 503
2893
 504
2898
 503
2905
 502
2910
 502
2915
 503
2921
 504
2926
 504
2931
 500
2937
 499
2942
 503
2949
 503
2954
 505
2959
 501
2965
 504
2970
 502
2975
 501
2981
 502
2987
 502
2993
 501
2998
 500
3003
 499
3009
 503
3014
 503
3020
 501
3025
 500
3031
 500
3037
 501
3042
 500
3047
 502
3053
 498
3058
 499
3064
 498
3069
 495
3075
 499
3081
 501
3086
 497
3091
 497
3097
 498
3102
 494
3108
 496
3113
 495
3119
 495
3125
 495
3130
 495
3135
 493
3141
 497
3146
 499
3152
 494
3158
 493
3163
 497
3169
 497
3174
 494
3179
 495
3185
 494
3190
 496
3196
 494
3202
 495
3207
 496
3213
 493
3218
 493
3224
 495
3229
 495
3234
 493
3240
 493
3246
 494
3251
 492
3257
 493
3262
 492
3268
 492
3273
 493
3278
 495
3284
 494
3290
 494
3295
 491
3301
 491
3306
 494
3312
 494
3317
 495
3322
 497
3329
 486
3334
 489
3339
 491
3345
 490
3350
 494
3356
 491
3361
 490
3366
 489
3373
 495
3378
 492
3383
 491
3389
 491
3394
 488
3400
 488
3405
 490
3410
 488
3417
 492
3422
 491
3428
 486
3433
 488
3438
 488
3444
 493
3449
 494
3454
 487
3461
 486
3466
 489
3472
 491
3477
 491
3482
 486
3488
 489
3493
 488
3499
 492
3505
 491
3510
 488
3516
 484
3521
 486
3526
 487
3532
 488
3537
 488
3543
 488
3549
 488
3554
 488
3560
 488
3565
 489
3570
 489
3576
 489
3581
 490
3587
 490
3593
 490
3598
 495
3604
 491
3609
 491
3614
 488
3620
 489
3625
 489
3631
 490
3637
 490
3642
 490
3648
 490
3653
 489
3658
 490
3664
 490
3670
 490
3676
 490
3681
 488
3686
 489
3692
 487
3697
 486
3702
 489
3708
 486
3714
 484
3720
 489
3725
 486
3730
 485
3736
 484
3741
 488
3746
 487
3752
 488
3758
 488
3764
 485
3769
 484
3774
 491
3780
 488
3785
 484
3790
 486
3796
 487
3802
 486
3808
 488
3813
 491
3818
 491
3824
 489
3829
 490
3835
 490
3841
 492
3846
 490
3852
 489
3857
 490
3862
 487
3868
 489
3873
 490
3879
 491
3885
 492
3890
 493
3896
 487
3901
 494
3906
 494
3912
 492
3917
 490
3923
 491
3929
 492
3934
 492
3940
 492
3945
 492
3950
 492
3956
 490
3961
 493
3968
 498
3973
 492
3978
 490
3984
 489
3989
 492
3994
 497
4000
 493
4005
 489
4012
 488
4017
 491
4022
 493
4028
 494
4033
 494
4039
 493
4044
 492
4049
 488
4056
 491
4061
 493
4066
 493
4072
 493
4077
 496
4083
 490
4088
 492
4093
 494
4100
 489
4105
 492
4110
 492
4116
 495
4121
 492
4127
 492
4132
 492
4137
 493
4144
 490
4149
 494
4154
 499
4160
 491
4165
 489
4171
 489
4176
 490
4182
 489
4188
 487
4193
 493
4199
 503
4204
 506
4209
 485
4215
 487
4220
 490
4226
 487
4232
 479
4237
 490
4243
 493
4248
 505
4253
 506
4259
 482
4264
 485
4270
 494
4276
 504
4281
 481
4287
 482
4292
 483
4297
 485
4303
 487
4308
 486
4314
 489
4320
 516
4325
 499
4331
 483
4336
 521
4341
 494
4347
 478
4353
 473
4358
 478
4364
 486
4369
 493
4375
 496
4380
 519
4385
 497
4391
 468
4397
 492
4403
 479
4408
 479
4413
 481
4419
 485
4424
 481
4429
 483
4435
 497
4441
 482
4447
 508
4452
 488
4457
 467
4463
 493
4468
 483
4473
 489
4480
 491
4485
 484
4491
 483
4496
 484
4501
 480
4507
 547
4512
 489
4517
 449
4524
 478
4529
 476
4535
 482
4540
 489
4545
 510
4551
 509
4556
 486
4561
 458
4568
 492
4573
 472
4579
 473
4584
 489
4589
 510
4595
 470
4600
 502
4606
 480
4612
 494
4617
 498
4623
 469
4628
 482
4633
 583
4639
 485
4644
 441
4651
 483
4656
 475
4661
 484
4667
 487
4672
 503
4677
 529
4683
 481
4688
 459
4695
 494
4700
 479
4705
 477
4711
 496
4716
 484
4721
 478
4727
 503
4732
 514
4739
 486
4744
 479
4749
 488
4755
 489
4760
 475
4766
 485
4771
 476
4776
 476
4783
 489
4788
 490
4793
 517
4799
 469
4804
 483
4810
 498
4815
 494
4820
 491
4827
 471
4832
 471
4837
 485
4843
 485
4848
 490
4854
 514
4859
 513
4865
 450
4871
 475
4876
 505
4881
 489
4887
 471
4892
 474
4898
 498
4903
 513
4909
 483
4915
 477
4920
 484
4925
 470
4931
 491
4936
 478
4942
 491
4947
 504
4953
 477
4959
 491
4964
 476
4970
 484
4975
 493
4980
 474
4986
 480
4992
 493
4997
 486
5003
 495
5008
 494
5014
 478
5019
 479
5024
 488
5030
 488
5036
 485
5041
 478
5047
 522
5052
 482
5058
 477
5063
 479
5068
 503
5074
 489
5080
 466
5085
 492
5091
 516
5096
 531
5102
 456
5107
 480
5112
 468
5118
 488
5124
 482
5130
 481
5135
 489
5140
 532
5146
 481
5151
 542
5156
 465
5163
 463
5168
 477
5174
 485
5179
 501
5184
 488
5190
 480
5195
 492
5200
 519
5207
 465
5212
 489
5218
 486
5223
 476
5228
 495
5234
 518
5239
 477
5244
 499
5251
 496
5256
 480
5262
 502
5267
 474
5272
 477
5278
 483
5283
 486
5288
 487
5295
 487
5300
 486
5306
 486
5311
 486
5316
 485
5322
 486
5327
 500
5334
 493
5339
 482
5344
 481
5350
 491
5355
 475
5360
 482
5366
 484
5371
 485
5378
 485
5383
 486
5388
 486
5394
 486
5399
 486
5404
 486
5410
 488
5415
 487
5422
 487
5427
 488
5432
 491
5438
 486
5443
 482
5448
 483
5454
 485
5459
 486
5466
 486
5471
 486
5476
 487
5482
 486
5487
 487
5492
 487
5498
 487
5504
 488
5510
 489
5515
 488
5520
 487
5526
 486
5531
 487
5537
 487
5542
 487
5548
 485
5554
 487
5559
 486
5564
 487
5570
 488
5575
 487
5581
 487
5586
 488
5592
 488
5598
 488
5603
 487
5608
 489
5614
 491
5619
 488
5625
 491
5630
 487
5636
 485
5642
 487
5647
 487
5652
 487
5658
 489
5663
 488
5669
 489
5675
 488
5680
 488
5686
 489
5691
 491
5697
 490
5702
 490
5707
 490
5713
 488
5719
 487
5724
 489
5730
 489
5735
 487
5741
 489
5746
 491
5751
 489
5757
 489
5763
 489
5768
 491
5774
 491
5779
 488
5785
 490
5790
 494
5795
 491
5801
 489
5807
 489
5812
 491
5818
 491
5823
 490
5829
 493
5834
 492
5839
 494
5846
 491
5851
 492
5856
 492
5862
 492
5867
 492
5873
 492
5878
 492
5883
 492
5890
 494
5895
 493
5901
 493
5906
 493
5911
 492
5917
 495
5922
 494
5927
 493
5934
 494
5939
 494
5945
 494
5950
 495
5955
 495
5961
 494
5966
 493
5971
 495
5978
 494
5983
 493
5989
 495
5994
 496
5999
 495
6005
 494
6010
 494
6016
 494
6022
 496
6027
 496
6033
 497
6038
 493
6043
 493
6049
 494
6054
 495
6061
 495
6066
 495
6071
 495
6077
 497
6082
 495
6087
 495
6093
 498
6098
 495
6105
 496
6110
 501
6115
 497
6121
 495
6126
 496
6131
 497
6137
 498
6142
 500
6149
 498
6154
 499
6159
 499
6165
 500
6170
 500
6175
 500
6181
 501
6187
 503
6193
 503
6198
 499
6203
 497
6209
 499
6214
 497
6220
 498
6225
 496
6231
 497
6237
 499
6242
 497
6247
 496
6253
 500
6258
 497
6264
 494
6269
 493
6275
 495
6281
 495
6286
 496
6291
 496
6297
 496
6302
 494
6308
 495
6313
 495
6319
 495
6325
 496
6330
 496
6335
 496
6341
 498
6346
 493
6352
 494
6358
 498
6363
 493
6369
 493
6374
 495
6380
 494
6385
 494
6390
 494
6396
 495
6402
 494
6407
 494
6413
 494
6418
 494
6424
 498
6429
 499
6434
 492
6440
 490
6446
 491
6451
 496
6457
 494
6462
 491
6468
 494
6473
 496
6478
 494
6484
 493
6490
 492
6495
 494
6501
 495
6506
 496
6512
 499
6517
 493
6522
 489
6529
 493
6534
 497
6539
 495
6545
 494
6550
 494
6556
 491
6561
 493
6566
 495
6573
 494
6578
 495
6583
 491
6589
 494
6594
 496
6600
 494
6605
 491
6610
 494
6617
 494
6622
 494
6628
 492
6633
 493
6638
 495
6644
 493
6649
 495
6654
 493
6661
 492
6666
 495
6672
 495
6677
 494
6682
 491
6688
 493
6693
 498
6699
 494
6705
 492
6710
 492
6716
 494
6721
 493
6726
 494
6732
 494
6737
 493
6743
 495
6749
 497
6754
 497
6760
 489
6765
 491
6770
 493
6776
 492
6781
 494
6788
 494
6793
 494
6798
 494
6804
 494
6809
 495
6814
 498
6820
 492
6825
 489
6832
 493
6837
 493
6842
 494
6848
 494
6853
 497
6858
 494
6864
 493
6870
 493
6876
 494
6881
 494
6886
 494
6892
 496
6897
 500
6902
 494
6908
 493
6914
 494
6920
 495
6925
 494
6930
 494
6936
 497
6941
 496
6947
 496
6952
 496
6958
 499
6964
 496
6969
 496
6974
 493
6980
 495
6985
 504
6991
 498
6996
 493
7002
 493
7008
 495
7013
 497
7018
 498
7024
 492
7029
 491
7035
 492
7041
 494
7046
 494
7052
 500
7057
 492
7062
 490
7068
 496
7073
 494
7079
 497
7085
 489
7090
 491
7096
 492
7101
 492
7107
 492
7112
 493
7117
 494
7123
 494
7129
 495
7134
 494
7140
 490
7145
 495
7151
 493
7156
 492
7161
 493
7168
 495
7173
 495
7178
 493
7184
 497
7189
 495
7195
 491
7200
 493
7205
 494
7212
 498
7217
 491
7222
 485
7228
 492
7233
 500
7239
 494
7244
 489
7249
 491
7256
 491
7261
 492
7267
 494
7272
 497
7277
 490
7283
 494
7288
 492
7293
 491
7300
 490
7305
 495
7311
 515
7316
 501
7321
 491
7327
 485
7332
 488
7337
 497
7344
 504
7349
 495
7355
 493
7360
 481
7365
 501
7371
 487
7376
 497
7382
 508
7388
 501
7393
 501
7399
 487
7404
 480
7409
 513
7415
 546
7420
 471
7426
 460
7432
 497
7437
 489
7443
 493
7448
 487
7453
 503
7459
 522
7464
 466
7471
 500
7476
 483
7481
 491
7487
 484
7492
 488
7497
 516
7503
 502
7508
 477
7515
 478
7520
 521
7525
 518
7531
 465
7536
 472
7541
 486
7547
 509
7553
 532
7559
 490
7564
 479
7569
 497
7575
 493
7580
 485
7585
 501
7591
 494
7597
 484
7603
 508
7608
 491
7613
 489
7619
 505
7624
 469
7630
 482
7635
 518
7641
 501
7647
 479
7652
 485
7657
 532
7663
 489
7668
 517
7674
 501
7680
 523
7685
 490
7691
 479
7696
 465
7701
 528
7707
 508
7712
 488
7718
 529
7724
 472
7729
 473
7735
 502
7740
 529
7745
 460
7751
 498
7756
 499
7762
 515
7768
 498
7773
 492
7779
 466
7784
 507
7790
 520
7795
 489
7800
 459
7806
 627
7812
 501
7817
 462
7823
 473
7828
 513
7834
 488
7839
 483
7844
 502
7851
 488
7856
 478
7861
 535
7867
 499
7872
 471
7878
 485
7883
 486
7888
 570
7895
 472
7900
 457
7905
 493
7911
 497
7916
 491
7922
 544
7927
 479
7932
 509
7939
 468
7944
 509
7950
 508
7955
 511
7960
 481
7966
 500
7971
 514
7976
 475
7983
 477
7988
 485
7994
 514
7999
 486
8004
 510
8010
 483
8015
 486
8020
 504
8027
 530
8032
 480
8038
 479
8043
 474
8048
 481
8054
 506
8059
 509
8065
 535
8071
 480
8076
 466
8082
 505
8087
 552
8092
 448
8098
 499
8103
 492
8109
 505
8115
 554
8120
 480
8126
 453
8131
 474
8136
 490
8142
 491
8147
 561
8154
 463
8159
 520
8164
 500
8170
 479
8175
 474
8180
 491
8186
 492
8192
 502
8198
 519
8203
 519
8208
 470
8214
 482
8219
 494
8224
 486
8230
 481
8236
 489
8242
 506
8247
 527
8252
 488
8258
 502
8263
 496
8268
 490
8274
 504
8280
 525
8286
 497
8291
 475
8296
 492
8302
 475
8307
 501
8313
 528
8318
 499
8324
 501
8330
 499
8335
 512
8340
 471
8346
 474
8351
 485
8357
 499
8363
 510
8368
 490
8374
 512
8379
 477
8384
 486
8390
 485
8395
 486
8401
 490
8407
 489
8412
 498
8418
 495
8423
 496
8428
 479
8434
 495
8439
 484
8445
 486
8451
 483
8456
 479
8462
 486
8467
 487
8472
 487
8478
 488
8483
 486
8489
 496
8495
 489
8500
 481
8506
 487
8511
 493
8517
 488
8522
 478
8527
 485
8534
 481
8539
 485
8544
 485
8550
 482
8555
 484
8561
 486
8566
 485
8571
 484
8578
 485
8583
 485
8588
 485
8594
 485
8599
 485
8605
 484
8610
 490
8615
 484
8622
 480
8627
 489
8632
 490
8638
 480
8643
 483
8649
 485
8654
 483
8659
 484
8666
 486
8671
 486
8676
 486
8682
 486
8687
 486
8693
 486
8698
 485
8704
 485
8710
 487
8715
 489
8721
 486
8726
 485
8731
 486
8737
 486
8742
 485
8748
 485
8754
 486
8759
 488
8765
 485
8770
 487
8775
 488
8781
 489
8786
 486
8792
 484
8798
 486
8803
 487
8809
 487
8814
 488
8819
 487
8825
 488
8830
 488
8836
 487
8842
 486
8847
 488
8853
 487
8858
 488
8863
 488
8869
 492
8875
 487
8881
 488
8886
 490
8891
 488
8897
 487
8902
 488
8907
 489
8913
 489
8919
 489
8925
 490
8930
 489
8935
 491
8941
 490
8946
 489
8951
 490
8957
 491
8963
 490
8969
 488
8974
 489
8979
 489
8985
 489
8990
 491
8995
 491
9001
 490
9007
 492
9013
 491
9018
 490
9023
 491
9029
 490
9034
 491
9039
 492
9046
 491
9051
 490
9057
 491
9062
 491
9067
 492
9073
 491
9078
 491
9084
 492
9090
 493
9095
 491
9101
 493
9106
 491
9111
 490
9117
 492
9122
 493
9128
 494
9134
 494
9139
 491
9145
 491
9150
 492
9155
 492
9161
 493
9166
 493
9172
 493
9178
 493
9183
 493
9189
 492
9194
 492
9199
 494
9205
 494
9210
 492
9217
 492
9222
 492
9227
 493
9233
 494
9238
 494
9244
 493
9249
 494
9254
 493
9261
 493
9266
 493
9271
 493
9277
 493
9282
 493
9288
 494
9293
 493
9298
 493
9305
 494
9310
 492
9315
 493
9321
 496
9326
 494
9332
 493
9337
 494
9342
 492
9349
 492
9354
 494
9359
 494
9365
 493
9370
 494
9376
 494
9381
 494
9387
 493
9393
 491
9398
 498
9403
 497
9409
 490
9414
 492
9420
 495
9425
 491
9431
 494
9437
 494
9442
 493
9448
 493
9453
 494
9458
 494
9464
 492
9469
 497
9475
 493
9481
 493
9486
 493
9492
 493
9497
 494
9502
 499
9508
 502
9513
 493
9519
 492
9525
 515
9530
 511
9536
 488
9541
 483
9546
 493
9552
 502
9558
 497
9563
 506
9569
 501
9574
 494
9580
 493
9585
 502
9590
 512
9596
 499
9602
 484
9607
 496
9613
 521
9618
 518
9624
 484
9629
 483
9634
 533
9640
 490
9646
 500
9652
 503
9657
 476
9662
 490
9668
 502
9673
 512
9678
 493
9684
 505
9690
 501
9696
 491
9701
 496
9706
 540
9712
 466
9717
 481
9722
 514
9729
 495
9734
 494
9740
 507
9745
 489
9750
 524
9756
 493
9761
 484
9766
 486
9773
 522
9778
 522
9784
 494
9789
 463
9794
 532
9800
 494
9805
 489
9811
 549
9817
 486
9822
 478
9828
 488
9833
 490
9838
 489
9844
 488
9849
 512
9856
 508
9861
 492
9866
 498
9872
 440
9877
 485
9882
 510
9888
 499
9893
 533
9900
 517
9905
 484
9910
 496
9916
 479
9921
 526
9926
 521
9932
 481
9937
 497
9944
 502
9949
 493
9954
 533
9960
 520
9965
 494
9971
 441
9976
 506
9981
 523
9988
 476
9993
 491
9998
 540
10004
 539
10009
 501
10015
 475
10020
 528
10025
 529
10032
 518
10037
 510
10043
 451
10048
 485
10054
 497
10059
 541
10064
 454
10071
 516
10076
 527
10082
 493
10087
 463
10093
 527
10098
 502
10103
 497
10109
 526
10115
 504
10121
 499
10126
 475
10132
 523
10137
 519
10142
 478
10148
 511
10153
 561
10160
 487
10165
 507
10171
 509
10176
 499
10181
 500
10187
 488
10192
 501
10199
 485
10204
 545
10210
 491
10215
 514
10220
 466
10226
 524
10231
 489
10237
 478
10243
 483
10248
 472
10254
 538
10259
 481
10265
 470
10270
 490
10276
 522
10281
 482
10287
 525
10293
 467
10298
 464
10304
 535
10309
 488
10315
 460
10320
 544
10326
 521
10332
 459
10337
 486
10343
 517
10348
 513
10354
 455
10359
 496
10364
 523
10371
 483
10376
 500
10382
 501
10387
 473
10393
 493
10398
 500
10403
 531
10409
 514
10415
 486
10421
 496
10426
 520
10431
 484
10437
 493
10442
 483
10448
 489
10454
 507
10460
 509
10465
 526
10470
 445
10476
 477
10481
 531
10487
 499
10492
 531
10499
 458
10504
 510
10509
 468
10515
 500
10520
 489
10526
 489
10531
 477
10537
 504
10543
 529
10548
 508
10554
 493
10559
 472
10565
 482
10570
 544
10576
 531
10582
 452
10587
 467
10593
 477
10598
 486
10604
 497
10609
 527
10614
 514
10620
 460
10626
 478
10632
 499
10637
 525
10643
 431
10648
 494
10653
 568
10659
 443
10664
 496
10671
 482
10676
 471
10682
 530
10687
 533
10692
 469
10698
 462
10703
 504
10710
 503
10715
 495
10721
 508
10726
 466
10731
 482
10737
 481
10742
 516
10748
 477
10754
 487
10760
 492
10765
 450
10770
 511
10776
 491
10781
 456
10787
 494
10792
 548
10798
 471
10804
 463
10809
 545
10815
 454
10820
 464
10826
 527
10831
 490
10836
 503
10843
 491
10848
 481
10854
 475
10859
 523
10865
 522
10870
 476
10875
 562
10882
 464
10887
 476
10893
 491
10898
 477
10904
 503
10909
 515
10914
 483
10920
 484
10926
 485
10932
 474
10937
 513
10943
 504
10948
 475
10953
 472
10959
 456
10964
 477
10971
 476
10976
 493
10982
 480
10987
 531
10992
 482
10998
 470
11003
 488
11010
 493
11015
 497
11020
 480
11026
 488
11031
 489
11037
 489
11042
 475
11048
 482
11054
 489
11059
 476
11065
 483
11070
 492
11076
 486
11081
 480
11087
 488
11092
 493
11098
 494
11104
 507
11109
 474
11115
 461
11120
 479
11126
 484
11131
 481
11137
 482
11143
 482
11148
 483
11154
 480
11159
 482
11165
 486
11170
 485
11175
 488
11182
 482
11187
 473
11193
 481
11198
 480
11204
 479
11209
 480
11214
 481
11220
 484
11226
 482
11232
 482
11237
 482
11242
 481
11248
 483
11253
 485
11259
 481
11265
 483
11271
 484
11276
 484
11281
 481
11287
 481
11292
 482
11298
 482
11303
 485
11310
 483
11315
 480
11320
 482
11326
 483
11331
 483
11337
 484
11342
 479
11348
 485
11354
 483
11359
 481
11365
 483
11370
 482
11376
 484
11381
 483
11387
 483
11393
 485
11398
 483
11404
 484
11409
 483
11415
 484
11420
 485
11425
 485
11431
 482
11437
 485
11443
 488
11448
 482
11454
 482
11459
 483
11464
 485
11470
 485
11475
 485
11482
 486
11487
 486
11493
 485
11498
 486
11503
 486
11509
 487
11514
 487
11521
 488
11526
 484
11532
 487
11537
 487
11542
 486
11548
 488
11553
 487
11559
 487
11565
 488
11571
 488
11576
 488
11581
 488
11587
 489
11592
 487
11598
 488
11603
 488
11610
 488
11615
 488
11620
 489
11626
 492
11631
 492
11637
 486
11642
 487
11648
 489
11654
 489
11659
 490
11665
 490
11670
 489
11676
 490
11681
 490
11686
 490
11693
 492
11698
 489
11704
 490
11709
 491
11715
 490
11720
 491
11725
 491
11731
 491
11737
 492
11743
 492
11748
 491
11754
 490
11759
 491
11764
 491
11770
 491
11776
 491
11782
 492
11787
 492
11793
 492
11798
 492
11803
 492
11809
 493
11814
 492
11821
 493
11826
 494
11831
 492
11837
 493
11842
 494
11848
 492
11853
 491
11859
 492
11865
 492
11870
 492
11876
 492
11881
 493
11887
 494
11892
 493
11898
 494
11904
 494
11909
 494
11915
 493
11920
 492
11926
 492
11931
 493
11937
 494
11942
 492
11948
 493
11954
 495
11959
 493
11965
 492
11970
 493
11976
 495
11981
 495
11986
 492
11993
 492
11998
 493
12004
 493
12009
 495
12015
 493
12020
 492
12025
 492
12032
 492
12037
 495
12043
 495
12048
 496
12053
 491
12059
 491
12064
 492
12070
 494
12076
 494
12082
 495
12087
 495
12092
 491
12098
 492
12103
 494
12109
 495
12114
 493
12121
 495
12126
 498
12131
 494
12137
 493
12142
 495
12148
 496
12153
 494
12160
 495
12165
 496
12170
 495
12176
 496
12181
 498
12187
 497
12192
 498
12198
 494
12204
 497
12209
 496
12215
 497
12220
 497
12226
 497
12231
 500
12237
 495
12242
 494
12248
 498
12254
 509
12259
 497
12265
 490
12270
 492
12276
 498
12281
 507
12286
 499
12293
 503
12298
 492
12304
 493
12309
 505
12314
 505
12320
 487
12325
 503
12332
 501
12337
 492
12343
 523
12348
 496
12353
 503
12359
 506
12364
 487
12370
 499
12376
 485
12382
 506
12387
 492
12392
 507
12398
 542
12403
 484
12409
 516
12414
 481
12421
 495
12426
 505
12431
 516
12437
 484
12442
 485
12448
 521
12453
 489
12460
 485
12465
 503
12470
 491
12476
 515
12481
 489
12487
 485
12492
 536
12498
 491
12504
 471
12509
 516
12515
 475
12520
 479
12526
 492
12531
 496
12536
 491
12542
 505
12548
 492
12554
 519
12559
 498
12565
 475
12570
 487
12575
 479
12581
 496
12587
 505
12593
 547
12598
 487
12604
 473
12609
 484
12614
 511
12620
 479
12625
 528
12632
 511
12637
 461
12643
 497
12648
 533
12653
 472
12659
 518
12664
 508
12670
 483
12676
 499
12682
 581
12687
 450
12692
 511
12698
 499
12703
 475
12709
 509
12715
 497
12721
 502
12726
 505
12731
 515
12737
 486
12742
 463
12748
 487
12753
 548
12759
 486
12765
 467
12770
 501
12776
 514
12781
 529
12787
 464
12792
 486
12797
 504
12804
 530
12809
 507
12815
 489
12820
 505
12826
 527
12831
 574
12836
 470
12843
 458
12848
 493
12854
 499
12859
 513
12865
 504
12870
 511
12875
 490
12881
 509
12887
 458
12893
 484
12898
 490
12904
 488
12909
 487
12914
 518
12920
 513
12925
 547
12932
 497
12937
 458
12942
 489
12948
 485
12953
 517
12959
 483
12964
 484
12971
 495
12976
 501
12981
 494
12987
 542
12992
 487
12998
 496
13003
 488
13009
 479
13015
 509
13020
 485
13026
 505
13031
 488
13037
 485
13042
 493
13048
 491
13053
 495
13059
 489
13065
 506
13070
 492
13076
 498
13081
 495
13086
 484
13092
 484
13097
 485
13104
 493
13109
 492
13115
 492
13120
 495
13125
 488
13131
 485
13136
 484
13143
 489
13148
 488
13154
 485
13159
 489
13164
 487
13170
 489
13175
 490
13181
 485
13187
 491
13193
 487
13198
 483
13203
 488
13209
 488
13214
 492
13220
 485
13225
 484
13231
 486
13237
 483
13242
 490
13248
 490
13253
 486
13259
 486
13264
 485
13270
 486
13276
 487
13281
 486
13287
 486
13292
 488
13298
 495
13303
 490
13308
 484
13315
 484
13320
 498
13326
 484
13331
 488
13337
 486
13342
 487
13347
 485
13353
 488
13359
 489
13365
 490
13370
 486
13376
 483
13381
 482
13386
 496
13392
 484
13398
 488
13404
 494
13409
 485
13414
 487
13420
 486
13425
 491
13431
 490
13436
 490
13443
 497
13448
 482
13453
 490
13459
 486
13464
 489
13470
 490
13475
 491
13481
 488
13487
 488
13492
 490
13498
 489
13503
 490
13509
 490
13514
 492
13520
 492
13526
 489
13531
 490
13537
 490
13542
 491
13548
 493
13553
 493
13559
 487
13564
 489
13570
 491
13576
 489
13581
 491
13587
 490
13592
 489
13598
 490
13603
 490
13608
 491
13615
 491
13620
 491
13626
 490
13631
 490
13636
 490
13642
 492
13647
 493
13654
 489
13659
 491
13665
 489
13670
 489
13675
 490
13681
 490
13686
 492
13692
 489
13698
 493
13704
 490
13709
 489
13714
 490
13720
 489
13725
 490
13731
 491
13736
 491
13743
 494
13748
 492
13753
 488
13759
 490
13764
 490
13770
 490
13775
 490
13782
 490
13787
 490
13792
 491
13798
 491
13803
 492
13809
 491
13814
 491
13820
 490
13826
 490
13831
 492
13837
 491
13842
 492
13848
 492
13853
 491
13858
 491
13864
 489
13870
 494
13876
 492
13881
 491
13887
 489
13892
 491
13897
 492
13903
 492
13908
 492
13915
 491
13920
 492
13926
 492
13931
 491
13936
 493
13942
 495
13947
 491
13954
 490
13959
 492
13965
 494
13970
 493
13975
 491
13981
 492
13986
 492
13992
 491
13998
 492
14004
 493
14009
 493
14014
 493
14020
 493
14025
 493
14031
 492
14036
 493
14043
 493
14048
 493
14053
 494
14059
 494
14064
 492
14070
 493
14075
 493
14081
 492
14087
 493
14092
 492
14098
 493
14103
 493
14109
 493
14114
 493
14119
 494
14126
 493
14131
 492
14137
 495
14142
 494
14148
 492
14153
 493
14158
 493
14164
 493
14170
 496
14176
 493
14181
 493
14187
 494
14192
 495
14197
 494
14203
 494
14209
 494
14215
 494
14220
 495
14226
 494
14231
 495
14236
 494
14242
 493
14247
 494
14254
 494
14259
 495
14265
 493
14270
 496
14275
 495
14281
 494
14286
 495
14292
 494
14298
 494
14303
 495
14309
 494
14314
 494
14320
 495
14325
 494
14331
 494
14337
 495
14342
 495
14348
 495
14353
 495
14359
 496
14364
 495
14370
 494
14375
 495
14381
 495
14387
 494
14392
 496
14398
 495
14403
 495
14409
 494
14414
 495
14419
 496
14426
 494
14431
 495
14437
 495
14442
 495
14448
 496
14453
 496
14458
 498
14465
 496
14470
 494
14476
 494
14481
 494
14487
 495
14492
 495
14497
 495
14503
 494
14509
 495
14515
 495
14520
 497
14525
 497
14531
 493
14536
 494
14542
 495
14547
 495
14554
 495
14559
 495
14564
 495
14570
 495
14575
 495
14581
 499
14586
 495
14593
 492
14598
 494
14603
 495
14609
 495
14614
 494
14620
 496
14625
 495
14631
 495
14637
 495
14642
 494
14648
 495
14653
 496
14659
 496
14664
 495
14670
 495
14675
 494
14681
 494
14687
 494
14692
 497
14698
 495
14703
 495
14709
 495
14714
 495
14720
 494
14726
 495
14731
 496
14737
 496
14742
 495
14748
 495
14753
 494
14758
 493
14765
 496
14770
 495
14776
 494
14781
 494
14786
 496
14792
 496
14797
 496
14803
 497
14809
 494
14815
 495
14820
 495
14825
 495
14831
 494
14836
 494
14842
 496
14848
 494
14854
 495
14859
 494
14864
 496
14870
 496
14875
 494
14881
 494
14886
 497
14893
 496
14898
 494
14903
 491
14909
 494
14914
 497
14920
 495
14925
 494
14931
 495
14937
 497
14942
 493
14948
 494
14953
 497
14959
 494
14964
 494
14970
 495
14976
 494
14981
 497
14987
 496
14992
 494
14998
 495
15003
 495
15008
 498
15014
 499
15020
 493
15026
 497
15031
 496
15037
 494
15042
 496
15047
 495
15053
 495
15058
 499
15065
 500
15070
 496
15076
 495
15081
 499
15086
 493
15092
 496
15097
 494
15104
 495
15109
 495
15115
 496
15120
 496
15125
 501
15131
 496
15136
 495
15142
 492
15148
 495
15154
 496
15159
 502
15164
 508
15170
 489
15175
 488
15181
 500
15186
 495
15193
 498
15198
 501
15203
 487
15209
 498
15214
 503
15220
 501
15225
 487
15232
 498
15237
 499
15242
 499
15248
 498
15253
 519
15259
 487
15264
 490
15269
 488
15276
 498
15281
 495
15287
 499
15292
 503
15298
 508
15303
 503
15308
 487
15314
 482
15320
 485
15326
 505
15331
 494
15337
 513
15342
 483
15347
 501
15353
 487
15358
 499
15365
 485
15370
 531
15376
 478
15381
 500
15386
 521
15392
 483
15397
 487
15404
 496
15409
 487
15415
 521
15420
 518
15425
 505
15431
 468
15436
 479
15442
 479
15448
 512
15454
 491
15459
 487
15464
 512
15470
 562
15475
 476
15481
 490
15486
 489
15492
 484
15498
 483
15503
 529
15509
 520
15514
 506
15520
 476
15525
 493
15531
 508
15537
 461
15542
 532
15548
 504
15553
 459
15559
 506
15564
 512
15569
 488
15576
 494
15581
 498
15587
 492
15592
 484
15598
 556
15603
 440
15608
 539
15614
 478
15620
 489
15626
 503
15631
 476
15637
 545
15642
 460
15647
 511
15653
 517
15659
 486
15665
 478
15670
 521
15676
 483
15681
 528
15686
 484
15692
 485
15697
 509
15704
 513
15709
 523
15715
 522
15720
 491
15725
 480
15731
 520
15736
 495
15742
 521
15748
 499
15753
 497
15759
 497
15764
 497
15770
 494
15775
 484
15781
 491
15787
 506
15792
 501
15798
 523
15803
 474
15809
 543
15814
 492
15820
 489
15825
 460
15831
 510
15837
 501
15842
 471
15848
 519
15853
 515
15859
 474
15864
 509
15869
 492
15876
 518
15881
 506
15887
 483
15892
 548
15898
 461
15903
 485
15908
 551
15915
 473
15920
 510
15926
 500
15931
 476
15937
 513
15942
 501
15947
 509
15953
 491
15959
 471
15965
 492
15970
 507
15975
 494
15981
 514
15986
 497
15992
 475
15997
 506
16004
 495
16009
 492
16014
 524
16020
 487
16025
 473
16031
 487
16036
 523
16043
 476
16048
 536
16053
 476
16059
 529
16064
 494
16070
 517
16075
 483
16081
 507
16087
 510
16092
 483
16098
 555
16103
 473
16109
 487
16114
 468
16119
 503
16125
 517
16131
 499
16137
 473
16142
 503
16148
 462
16153
 501
16158
 516
16164
 467
16169
 517
16176
 519
16181
 471
16187
 496
16192
 524
16197
 494
16203
 480
16208
 506
16215
 501
16220
 485
16226
 505
16231
 507
16236
 457
16242
 530
16247
 488
16253
 472
16259
 482
16265
 493
16270
 509
16275
 492
16281
 497
16286
 497
16292
 524
16297
 493
16303
 496
16309
 529
16314
 476
16320
 486
16325
 478
16331
 492
16336
 479
16342
 505
16348
 484
16353
 494
16359
 600
16364
 477
16370
 436
16375
 481
16380
 483
16387
 479
16392
 512
16398
 545
16403
 438
16409
 456
16414
 514
16419
 491
16425
 504
16431
 501
16437
 490
16442
 487
16448
 504
16453
 483
16458
 451
16464
 499
16470
 485
16476
 498
16481
 519
16486
 475
16492
 513
16497
 505
16503
 499
16508
 505
16515
 470
16520
 469
16525
 470
16531
 489
16536
 499
16542
 517
16547
 537
16553
 474
16559
 441
16564
 506
16570
 488
16575
 485
16581
 543
16586
 476
16592
 462
16598
 470
16603
 481
16609
 532
16614
 498
16620
 472
16625
 538
16631
 492
16636
 473
16642
 490
16648
 487
16653
 487
16659
 484
16664
 494
16670
 497
16675
 515
16680
 481
16687
 460
16692
 474
16698
 506
16703
 463
16708
 479
16714
 539
16719
 495
16726
 542
16731
 452
16737
 477
16742
 524
16747
 469
16753
 482
16758
 504
16764
 497
16770
 470
16776
 520
16781
 473
16786
 458
16792
 541
16797
 472
16803
 471
16808
 517
16815
 498
16820
 471
16825
 532
16831
 459
16836
 487
16842
 503
16847
 488
16854
 496
16859
 493
16864
 457
16870
 525
16875
 500
16881
 483
16886
 475
16892
 513
16898
 484
16903
 509
16909
 475
16914
 508
16920
 524
16925
 494
16930
 483
16936
 482
16942
 513
16948
 459
16953
 513
16959
 469
16964
 502
16969
 507
16975
 468
16980
 523
16987
 489
16992
 478
16998
 460
17003
 490
17008
 498
17014
 489
17019
 499
17026
 490
17031
 517
17037
 454
17042
 476
17047
 470
17053
 474
17058
 518
17064
 490
17070
 504
17076
 486
17081
 517
17086
 463
17092
 469
17097
 464
17103
 503
17108
 553
17115
 464
17120
 514
17125
 467
17131
 472
17136
 507
17142
 534
17147
 466
17153
 520
17159
 487
17164
 463
17170
 505
17175
 495
17181
 490
17186
 539
17191
 461
17198
 473
17203
 498
17209
 512
17214
 500
17220
 515
17225
 457
17230
 465
17236
 486
17242
 502
17248
 506
17253
 495
17259
 510
17264
 507
17269
 500
17275
 485
17281
 459
17287
 470
17292
 481
17298
 534
17303
 496
17308
 495
17314
 466
17319
 505
17326
 440
17331
 477
17337
 496
17342
 508
17347
 509
17353
 481
17358
 440
17364
 482
17370
 488
17376
 486
17381
 496
17386
 483
17392
 515
17397
 508
17403
 505
17409
 452
17414
 503
17420
 500
17425
 440
17431
 509
17436
 508
17442
 487
17447
 456
17453
 491
17459
 530
17464
 450
17470
 499
17475
 514
17481
 489
17486
 523
17491
 451
17498
 487
17503
 481
17509
 517
17514
 477
17520
 500
17525
 486
17530
 501
17537
 480
17542
 482
17548
 486
17553
 511
17559
 497
17564
 476
17569
 512
17575
 499
17581
 454
17587
 495
17592
 470
17598
 516
17603
 540
17608
 432
17614
 472
17619
 479
17626
 470
17631
 499
17636
 495
17642
 538
17647
 518
17653
 474
17658
 444
17665
 479
17670
 474
17675
 514
17681
 494
17686
 501
17692
 503
17697
 484
17703
 466
17709
 496
17714
 489
17720
 500
17725
 487
17731
 492
17736
 515
17742
 479
17747
 486
17753
 471
17759
 497
17764
 476
17770
 509
17775
 506
17781
 514
17786
 480
17792
 479
17798
 499
17803
 478
17809
 505
17814
 495
17820
 497
17825
 487
17830
 471
17837
 483
17842
 517
17848
 481
17853
 507
17859
 493
17864
 472
17869
 489
17875
 513
17881
 482
17887
 511
17892
 495
17897
 453
17903
 479
17908
 494
17914
 512
17920
 482
17926
 517
17931
 491
17936
 440
17942
 514
17947
 480
17953
 514
17958
 527
17965
 474
17970
 514
17975
 485
17981
 463
17986
 497
17992
 505
17997
 498
18003
 462
18009
 560
18014
 521
18020
 444
18025
 499
18031
 492
18036
 492
18042
 493
18048
 459
18053
 509
18059
 461
18064
 516
18070
 486
18075
 507
18081
 469
18086
 455
18092
 514
18098
 496
18103
 501
18109
 500
18114
 481
18119
 514
18125
 483
18130
 497
18137
 490
18142
 475
18148
 515
18153
 504
18158
 467
18164
 473
18169
 492
18176
 516
18181
 495
18187
 473
18192
 474
18197
 468
18203
 511
18208
 480
18214
 538
18220
 498
18226
 457
18231
 481
18236
 521
18242
 494
18247
 451
18253
 491
18258
 497
18265
 526
18270
 476
18275
 484
18281
 532
18286
 489
18292
 474
18297
 494
18304
 519
18309
 472
18314
 494
18320
 514
18325
 509
18331
 468
18336
 482
18341
 486
18348
 483
18353
 488
18359
 501
18364
 513
18370
 521
18375
 456
18380
 471
18386
 483
18392
 535
18398
 479
18403
 485
18409
 468
18414
 494
18419
 513
18425
 492
18430
 532
18437
 492
18442
 492
18448
 470
18453
 482
18458
 488
18464
 495
18469
 493
18476
 539
18481
 439
18487
 462
18492
 488
18497
 509
18503
 572
18508
 458
18514
 430
18520
 487
18526
 511
18531
 502
18536
 469
18542
 504
18547
 532
18553
 487
18558
 495
18565
 460
18570
 489
18575
 486
18581
 508
18586
 548
18592
 471
18597
 500
18603
 472
18609
 515
18614
 499
18620
 481
18625
 474
18631
 531
18636
 553
18641
 458
18648
 473
18653
 466
18659
 543
18664
 473
18670
 506
18675
 484
18680
 497
18686
 494
18692
 499
18698
 484
18703
 495
18709
 481
18714
 491
18719
 547
18725
 496
18731
 467
18737
 475
18742
 501
18748
 497
18753
 461
18758
 509
18764
 508
18769
 494
18776
 453
18781
 494
18787
 494
18792
 499
18797
 539
18803
 488
18808
 478
18814
 482
18820
 491
18825
 476
18831
 471
18836
 517
18842
 488
18847
 507
18853
 486
18859
 507
18864
 447
18870
 522
18875
 515
18881
 436
18886
 471
18892
 537
18897
 496
18903
 462
18909
 497
18914
 501
18920
 478
18925
 510
18931
 485
18936
 505
18941
 479
18948
 479
18953
 493
18959
 513
18964
 489
18970
 463
18975
 488
18980
 558
18987
 483
18992
 452
18998
 479
19003
 545
19009
 476
19014
 504
19019
 479
19025
 466
19031
 499
19037
 507
19042
 471
19048
 542
19053
 455
19058
 474
19064
 507
19069
 455
19076
 479
19081
 508
19086
 517
19092
 515
19097
 518
19103
 481
19108
 445
19115
 478
19120
 497
19125
 499
19131
 529
19136
 480
19142
 493
19147
 473
19153
 482
19159
 521
19164
 468
19170
 483
19175
 462
19181
 555
19186
 533
19192
 453
19197
 464
19203
 525
19209
 467
19214
 478
19220
 508
19225
 495
19231
 458
19236
 506
19241
 537
19248
 458
19253
 456
19259
 482
19264
 539
19270
 462
19275
 469
19280
 485
19287
 541
19292
 458
19298
 474
19303
 514
19308
 502
19314
 496
19319
 499
19325
 463
19331
 515
19337
 478
19342
 524
19347
 474
19353
 479
19358
 495
19364
 477
19369
 511
19376
 496
19381
 517
19386
 494
19392
 468
19397
 484
19403
 468
19408
 465
19415
 497
19420
 497
19425
 513
19431
 505
19436
 482
19442
 493
19447
 478
19453
 470
19459
 534
19464
 499
19470
 497
19475
 472
19481
 487
19486
 514
19492
 491
19497
 465
19503
 493
19509
 488
19514
 516
19520
 456
19525
 473
19530
 510
19536
 478
19542
 529
19548
 465
19553
 490
19559
 483
19564
 517
19569
 497
19575
 485
19580
 459
19587
 485
19592
 482
19598
 541
19603
 482
19608
 494
19614
 506
19619
 467
19625
 506
19631
 482
19637
 479
19642
 483
19647
 505
19653
 498
19658
 489
19664
 471
19670
 463
19676
 506
19681
 515
19686
 470
19692
 494
19697
 506
19703
 508
19708
 502
19715
 469
19720
 486
19725
 480
19731
 508
19736
 488
19742
 499
19747
 485
19753
 518
19759
 451
19764
 452
19770
 482
19775
 520
19781
 527
19786
 470
19791
 506
19798
 492
19803
 513
19809
 493
19814
 478
19820
 496
19825
 481
19830
 497
19836
 483
19842
 505
19848
 507
19853
 434
19859
 487
19864
 516
19869
 525
19875
 474
19880
 562
19887
 471
19892
 447
19898
 513
19903
 490
19908
 496
19914
 501
19919
 518
19926
 490
19931
 449
19937
 498
19942
 505
19947
 527
19953
 484
19958
 496
19964
 466
19970
 465
19976
 482
19981
 492
19986
 529
19992
 528
19997
 471
20003
 474
20008
 505
20014
 494
20020
 474
20025
 560
20031
 481
20036
 450
20042
 504
20047
 499
20052
 492
20059
 476
20064
 467
20070
 505
20075
 550
20081
 446
20086
 495
20091
 485
20098
 475
20103
 490
20109
 500
20114
 542
20120
 467
20125
 467
20130
 495
20136
 482
20142
 510
20148
 501
20153
 478
20159
 500
20164
 528
20169
 478
20175
 492
20180
 471
20187
 501
20192
 493
20198
 471
20203
 528
20208
 514
20214
 474
20219
 466
20226
 477
20231
 519
20237
 473
20242
 499
20247
 509
20253
 526
20258
 478
20264
 525
20270
 477
20275
 482
20281
 499
20286
 520
20292
 510
20297
 449
20303
 508
20308
 471
20314
 490
20320
 506
20325
 512
20331
 489
20336
 485
20342
 503
20347
 503
20353
 441
20359
 485
20364
 505
20370
 555
20375
 486
20381
 477
20386
 523
20391
 482
20398
 461
20403
 476
20409
 529
20414
 494
20420
 475
20425
 517
20430
 488
20436
 522
20442
 480
20448
 496
20453
 483
20459
 484
20464
 518
20469
 495
20475
 519
20481
 509
20487
 453
20492
 479
20497
 496
20503
 484
20508
 506
20514
 490
20519
 509
20526
 550
20531
 438
20536
 451
20542
 483
20547
 516
20553
 550
20558
 518
20564
 504
20570
 473
20575
 459
20581
 509
20586
 505
20592
 489
20597
 476
20603
 498
20609
 496
20614
 477
20620
 533
20625
 480
20631
 531
20636
 498
20642
 476
20647
 495
20653
 518
20659
 501
20664
 486
20670
 481
20675
 484
20681
 461
20686
 485
20691
 507
20698
 494
20703
 512
20709
 487
20714
 516
20719
 457
20725
 482
20730
 473
20737
 478
20742
 540
20748
 496
20753
 477
20758
 520
20764
 482
20769
 487
20775
 499
20781
 507
20787
 495
20792
 509
20797
 483
20803
 487
20808
 508
20814
 467
20819
 503
20826
 478
20831
 481
20836
 485
20842
 486
20847
 501
20853
 484
20858
 488
20865
 510
20870
 492
20875
 505
20881
 491
20886
 497
20892
 487
20897
 487
20902
 501
20909
 470
20914
 487
20920
 493
20925
 491
20931
 490
20936
 495
20941
 493
20947
 485
20953
 496
20959
 485
20964
 483
20970
 497
20975
 504
20980
 488
20986
 479
20992
 485
20998
 487
21003
 488
21009
 490
21014
 490
21019
 500
21025
 491
21030
 493
21037
 524
21042
 474
21048
 483
21053
 486
21058
 488
21064
 491
21069
 492
21075
 492
21081
 494
21086
 488
21092
 487
21097
 493
21103
 494
21108
 490
21114
 486
21120
 487
21125
 487
21131
 492
21136
 489
21142
 489
21147
 491
21153
 490
21158
 491
21164
 491
21170
 491
21175
 491
21181
 490
21186
 491
21192
 492
21197
 491
21202
 491
21209
 492
21214
 491
21220
 491
21225
 488
21231
 491
21236
 492
21241
 490
21248
 490
21253
 491
21259
 490
21264
 490
21270
 491
21275
 491
21280
 490
21286
 491
21292
 491
21298
 491
21303
 490
21308
 490
21314
 491
21319
 490
21325
 491
21330
 491
21337
 491
21342
 490
21347
 491
21353
 491
21358
 491
21364
 490
21369
 490
21376
 490
21381
 491
21386
 491
21392
 491
21397
 491
21403
 491
21408
 491
21414
 491
21420
 491
21425
 491
21431
 492
21436
 491
21442
 491
21447
 493
21453
 493
21458
 491
21464
 491
21470
 492
21475
 493
21481
 490
21486
 491
21492
 492
21497
 491
21502
 491
21509
 491
21514
 491
21520
 491
21525
 492
21530
 492
21536
 491
21541
 492
21548
 491
21553
 492
21559
 492
21564
 492
21569
 491
21575
 492
21580
 492
21586
 492
21592
 492
21598
 492
21603
 492
21608
 491
21614
 490
21619
 492
21625
 493
21630
 493
21637
 492
21642
 491
21647
 492
21653
 491
21658
 491
21664
 491
21669
 491
21676
 492
21681
 491
21686
 491
21692
 491
21697
 491
21703
 491
21708
 491
21714
 491
21720
 491
21725
 490
21731
 490
21736
 490
21742
 492
21747
 491
21753
 490
21758
 491
21764
 490
21770
 490
21775
 491
21781
 490
21786
 490
21791
 491
21797
 490
21803
 490
21809
 490
21814
 490
21820
 490
21825
 491
21830
 490
21836
 491
21841
 491
21848
 493
21853
 492
21859
 490
21864
 489
21869
 490
21875
 490
21880
 491
21886
 491
21892
 491
21898
 491
21903
 491
21908
 492
21914
 491
21919
 491
21925
 491
21931
 491
21937
 491
21942
 490
21947
 491
21953
 492
21958
 492
21964
 492
21969
 493
21976
 492
21981
 492
21986
 492
21992
 493
21997
 493
22003
 493
22008
 493
22013
 494
22020
 493
22025
 494
22031
 494
22036
 495
22042
 495
22047
 494
22052
 494
22059
 494
22064
 495
22070
 495
22075
 495
22081
 495
22086
 496
22091
 496
22097
 495
22103
 497
22109
 497
22114
 497
22120
 498
22125
 497
22130
 498
22136
 499
22141
 500
22148
 500
22153
 500
22159
 501
22164
 500
22169
 502
22175
 502
22180
 502
22187
 502
22192
 503
22198
 503
22203
 504
22208
 504
22214
 505
22219
 505
22225
 505
22231
 505
22237
 506
22242
 506
22247
 507
22253
 506
22258
 506
22264
 506
22269
 509
22275
 508
22281
 509
22286
 508
22292
 509
22297
 509
22303
 510
22308
 510
22313
 511
22320
 511
22325
 510
22331
 511
22336
 512
22342
 512
22347
 512
22352
 513
22359
 513
22364
 514
22370
 513
22375
 513
22381
 513
22386
 514
22391
 514
22397
 513
22403
 515
22409
 516
22414
 516
22420
 515
22425
 515
22430
 515
22436
 516
22441
 516
22448
 516
22453
 516
22459
 516
22464
 517
22469
 517
22475
 517
22480
 517
22487
 517
22492
 517
22497
 517
22503
 517
22508
 518
22514
 517
22519
 517
22525
 518
22531
 517
22536
 517
22542
 517
22547
 519
22553
 518
22558
 517
22564
 517
22569
 517
22575
 517
22581
 517
22586
 517
22592
 516
22597
 516
22603
 516
22608
 516
22614
 515
22620
 515
22625
 514
22631
 514
22636
 514
22642
 514
22647
 514
22652
 515
22659
 511
22664
 513
22670
 512
22675
 511
22681
 509
22686
 511
22691
 511
22697
 511
22703
 511
22709
 510
22714
 509
22720
 509
22725
 509
22730
 509
22736
 508
22742
 508
22748
 508
22753
 509
22758
 508
22764
 507
22769
 507
22775
 507
22780
 507
22787
 507
22792
 507
22797
 509
22803
 505
22808
 504
22814
 505
22819
 506
22825
 505
22831
 506
22836
 505
22842
 506
22847
 506
22853
 505
22858
 505
22864
 505
22870
 505
22875
 505
22881
 505
22886
 506
22892
 505
22897
 504
22903
 505
22908
 505
22914
 505
22920
 505
22925
 505
22931
 504
22936
 504
22942
 504
22947
 504
22952
 504
22959
 503
22964
 504
22970
 505
22975
 504
22980
 504
22986
 503
22991
 504
22998
 503
23003
 504
23009
 504
23014
 503
23019
 503
23025
 503
23030
 503
23036
 503
23042
 503
23048
 503
23053
 503
23058
 503
23064
 503
23069
 502
23075
 502
23080
 502
23087
 501
23092
 501
23097
 501
23103
 501
23108
 501
23114
 501
23119
 500
23126
 501
23131
 500
23136
 501
23142
 500
23147
 501
23153
 500
23158
 499
23164
 500
23170
 499
23175
 500
23181
 501
23186
 499
23192
 499
23197
 499
23203
 500
23208
 501
23214
 500
23220
 499
23225
 499
23231
 500
23236
 499
23241
 500
23247
 501
23252
 498
23259
 500
23264
 500
23270
 500
23275
 499
23280
 500
23286
 500
23291
 499
23298
 500
23303
 500
23309
 500
23314
 500
23319
 499
23325
 500
23330
 500
23336
 500
23342
 500
23348
 499
23353
 500
23358
 500
23364
 499
23369
 500
23375
 500
23380
 500
23387
 501
23392
 497
23397
 498
23403
 500
23408
 500
23414
 499
23419
 500
23426
 501
23431
 498
23436
 498
23442
 501
23447
 500
23453
 500
23458
 500
23463
 499
23470
 499
23475
 499
23481
 500
23486
 499
23492
 500
23497
 500
23502
 499
23508
 499
23514
 499
23520
 499
23525
 499
23531
 499
23536
 499
23541
 499
23547
 499
23553
 498
23559
 499
23564
 499
23570
 499
23575
 498
23580
 498
23586
 499
23591
 499
23598
 498
23603
 498
23609
 498
23614
 499
23619
 498
23625
 498
23630
 498
23636
 498
23642
 499
23648
 499
23653
 498
23658
 498
23664
 499
23669
 499
23675
 498
23681
 498
23687
 498
23692
 498
23697
 498
23703
 498
23708
 498
23714
 497
23719
 498
23725
 498
23731
 498
23736
 498
23742
 497
23747
 498
23753
 497
23758
 498
23763
 498
23770
 498
23775
 498
23781
 497
23786
 498
23792
 498
23797
 498
23802
 498
23809
 498
23814
 498
23820
 498
23825
 499
23831
 499
23836
 499
23841
 499
23847
 499
23853
 499
23859
 499
23864
 499
23870
 499
23875
 499
23880
 500
23886
 500
23891
 500
23898
 499
23903
 500
23909
 500
23914
 500
23919
 501
23925
 501
23930
 501
23937
 501
23942
 501
23947
 501
23953
 501
23958
 500
23964
 501
23969
 501
23975
 501
23981
 501
23986
 502
23992
 501
23997
 501
24003
 501
24008
 502
24014
 502
24019
 502
24025
 502
24031
 502
24036
 503
24042
 501
24047
 502
24053
 502
24058
 502
24064
 503
24070
 502
24075
 502
24081
 502
24086
 503
24092
 503
24097
 502
24102
 501
24109
 502
24114
 502
24120
 503
24125
 503
24131
 502
24136
 502
24141
 503
24147
 502
24153
 503
24159
 503
24164
 503
24170
 502
24175
 501
24180
 504
24186
 503
24192
 503
24198
 503
24203
 502
24208
 502
24214
 503
24219
 504
24225
 501
24230
 505
24237
 504
24242
 503
24247
 502
24253
 503
24258
 504
24264
 503
24269
 503
24275
 504
24281
 503
24286
 504
24292
 505
24297
 505
24303
 505
24308
 507
24314
 505
24320
 505
24325
 507
24331
 505
24336
 507
24342
 507
24347
 506
24353
 508
24358
 507
24364
 506
24370
 509
24375
 508
24381
 508
24386
 508
24392
 508
24397
 508
24402
 509
24409
 509
24414
 509
24420
 508
24425
 510
24430
 509
24436
 509
24441
 512
24448
 510
24453
 511
24459
 510
24464
 510
24469
 510
24475
 512
24480
 511
24486
 512
24492
 511
24498
 511
24503
 511
24508
 510
24514
 509
24519
 511
24525
 512
24530
 511
24537
 512
24542
 511
24547
 512
24553
 511
24558
 510
24564
 512
24569
 511
24576
 511
24581
 512
24586
 511
24592
 511
24597
 511
24603
 511
24608
 511
24614
 510
24620
 511
24625
 511
24631
 510
24636
 510
24642
 510
24647
 511
24653
 509
24658
 510
24664
 509
24670
 509
24675
 509
24681
 509
24686
 508
24691
 509
24697
 508
24702
 507
24709
 508
24714
 507
24720
 507
24725
 507
24730
 506
24736
 506
24741
 506
24748
 506
24753
 506
24759
 505
24764
 504
24769
 504
24775
 504
24780
 504
24786
 504
24792
 503
24798
 502
24803
 502
24808
 502
24814
 501
24819
 499
24825
 500
24830
 500
24837
 499
24842
 499
24847
 498
24853
 497
24858
 497
24864
 497
24869
 496
24876
 496
24881
 497
24886
 495
24892
 494
24897
 497
24903
 496
24908
 494
24913
 493
24920
 494
24925
 493
24931
 493
24936
 492
24942
 495
24947
 494
24952
 493
24958
 493
24964
 492
24970
 491
24975
 491
24981
 492
24986
 493
24991
 492
24997
 492
25003
 491
25009
 491
25014
 490
25020
 492
25025
 490
25030
 490
25036
 490
25041
 489
25048
 490
25053
 490
25059
 491
25064
 489
25069
 489
25075
 490
25080
 492
25086
 487
25092
 488
25098
 489
25103
 489
25108
 490
25114
 489
25119
 488
25125
 490
25131
 490
25137
 490
25142
 489
25147
 491
25153
 489
25158
 491
25164
 491
25169
 491
25175
 489
25181
 489
25186
 490
25192
 491
25197
 490
25203
 491
25208
 488
25213
 489
25220
 492
25225
 491
25231
 489
25236
 494
25242
 493
25247
 490
25252
 490
25259
 489
25264
 490
25270
 491
25275
 491
25281
 493
25286
 490
25291
 491
25297
 492
25303
 492
25309
 495
25314
 492
25320
 489
25325
 498
25330
 491
25336
 494
25341
 491
25348
 494
25353
 494
25359
 495
25364
 495
25369
 488
25375
 494
25380
 494
25387
 492
25392
 494
25397
 495
25403
 489
25408
 492
25414
 493
25419
 494
25425
 494
25431
 491
25436
 497
25442
 493
25447
 496
25453
 490
25458
 495
25464
 490
25469
 493
25475
 494
25481
 491
25486
 489
25492
 492
25497
 490
25503
 496
25508
 487
25513
 488
25520
 495
25525
 494
25531
 497
25536
 491
25542
 488
25547
 493
25552
 489
25559
 497
25564
 498
25570
 492
25575
 495
25581
 491
25586
 494
25591
 496
25597
 497
25603
 496
25609
 494
25614
 490
25620
 500
25625
 495
25630
 487
25636
 497
25641
 503
25648
 492
25653
 491
25658
 498
25664
 499
25669
 504
25675
 488
25680
 488
25687
 498
25692
 500
25697
 492
25703
 495
25708
 494
25714
 490
25719
 497
25725
 499
25731
 485
25736
 493
25742
 496
25747
 499
25753
 491
25758
 487
25764
 487
25769
 493
25775
 493
25781
 489
25786
 499
25792
 500
25797
 483
25802
 487
25808
 489
25814
 496
25820
 489
25825
 485
25831
 487
25836
 500
25841
 494
25847
 484
25852
 494
25859
 490
25864
 480
25870
 483
25875
 491
25880
 487
25886
 492
25891
 488
25897
 497
25903
 487
25908
 477
25914
 492
25919
 490
25925
 489
25930
 483
25936
 486
25942
 487
25947
 486
25953
 491
25958
 495
25964
 483
25969
 478
25975
 489
25980
 504
25986
 483
25992
 483
25997
 488
26003
 496
26008
 483
26014
 482
26019
 483
26024
 492
26031
 488
26036
 486
26042
 485
26047
 484
26053
 482
26058
 505
26063
 492
26070
 472
26075
 483
26081
 489
26086
 496
26091
 484
26097
 482
26102
 487
26108
 488
26114
 493
26120
 485
26125
 483
26130
 484
26136
 486
26141
 487
26147
 487
26152
 485
26159
 486
26164
 486
26169
 486
26175
 488
26180
 487
26186
 483
26191
 485
26198
 485
26203
 489
26208
 487
26214
 485
26219
 485
26225
 484
26230
 486
26236
 487
26242
 487
26247
 487
26253
 486
26258
 485
26264
 487
26269
 487
26274
 487
26280
 487
26286
 487
26292
 487
26297
 487
26303
 488
26308
 487
26313
 487
26319
 487
26324
 487
26331
 490
26336
 491
26342
 485
26347
 486
26352
 486
26358
 487
26363
 489
26370
 487
26375
 487
26381
 487
26386
 487
26391
 487
26397
 487
26402
 487
26408
 487
26414
 487
26420
 487
26425
 487
26430
 487
26436
 486
26441
 495
26447
 488
26452
 485
26459
 486
26464
 487
26469
 485
26475
 485
26480
 485
26486
 486
26491
 486
26497
 487
26503
 486
26508
 487
26514
 486
26519
 486
26525
 487
26530
 487
26535
 488
26542
 487
26547
 487
26553
 487
26558
 488
26564
 488
26569
 488
26574
 488
26580
 489
26586
 488
26592
 487
26597
 487
26603
 486
26608
 486
26613
 486
26619
 487
26625
 486
26631
 486
26636
 486
26642
 487
26647
 487
26652
 488
26658
 486
26663
 486
26670
 486
26675
 486
26680
 487
26686
 487
26691
 488
26697
 487
26702
 487
26708
 489
26714
 487
26719
 488
26725
 494
26730
 487
26736
 487
26741
 487
26747
 486
26753
 486
26758
 487
26764
 488
26769
 487
26775
 487
26780
 487
26786
 488
26791
 488
26797
 489
26803
 491
26808
 488
26814
 488
26819
 488
26825
 488
26830
 492
26835
 489
26842
 490
26847
 487
26853
 489
26858
 489
26864
 490
26869
 489
26874
 489
26881
 492
26886
 491
26892
 490
26897
 488
26902
 493
26908
 492
26913
 493
26919
 493
26925
 491
26931
 491
26936
 491
26941
 492
26947
 493
26952
 494
26958
 494
26963
 493
26970
 495
26975
 491
26980
 494
26986
 494
26991
 494
26997
 495
27002
 495
27009
 495
27014
 494
27019
 498
27025
 493
27030
 492
27036
 496
27041
 496
27047
 494
27053
 495
27058
 494
27064
 497
27069
 495
27075
 494
27080
 493
27086
 493
27091
 495
27097
 496
27103
 493
27108
 497
27114
 493
27119
 494
27125
 496
27130
 490
27136
 494
27142
 493
27147
 496
27153
 494
27158
 496
27163
 493
27169
 498
27174
 488
27181
 491
27186
 494
27192
 493
27197
 493
27202
 492
27208
 495
27213
 497
27219
 494
27225
 498
27231
 486
27236
 477
27241
 494
27247
 499
27252
 496
27258
 492
27264
 493
27270
 506
27275
 494
27280
 483
27286
 490
27291
 497
27297
 494
27302
 495
27309
 497
27314
 495
27319
 493
27325
 499
27330
 491
27336
 500
27341
 503
27347
 506
27353
 492
27358
 503
27364
 494
27369
 489
27375
 498
27380
 496
27385
 497
27392
 495
27397
 504
27403
 512
27408
 519
27414
 496
27419
 489
27424
 504
27430
 500
27436
 500
27442
 496
27447
 503
27453
 506
27458
 509
27463
 501
27469
 487
27474
 494
27481
 512
27486
 512
27492
 498
27497
 490
27502
 489
27508
 489
27513
 536
27520
 510
27525
 503
27531
 486
27536
 521
27541
 484
27547
 487
27552
 485
27558
 491
27564
 510
27570
 488
27575
 500
27580
 498
27586
 495
27591
 509
27597
 495
27602
 488
27609
 495
27614
 523
27619
 496
27625
 466
27630
 510
27636
 479
27641
 498
27646
 490
27653
 505
27658
 488
27664
 515
27669
 479
27675
 488
27680
 495
27685
 514
27692
 483
27697
 512
27703
 489
27708
 486
27714
 511
27719
 488
27724
 472
27730
 495
27736
 499
27742
 505
27747
 477
27753
 486
27758
 487
27763
 500
27769
 505
27774
 490
27781
 491
27786
 487
27792
 525
27797
 461
27802
 478
27808
 479
27813
 498
27820
 511
27825
 484
27831
 475
27836
 489
27841
 485
27847
 492
27852
 492
27858
 485
27864
 486
27869
 489
27875
 502
27880
 501
27886
 477
27891
 491
27897
 491
27902
 488
27908
 483
27914
 485
27919
 486
27925
 489
27930
 488
27936
 489
27941
 488
27947
 489
27953
 487
27958
 491
27964
 489
27969
 490
27975
 487
27980
 489
27985
 489
27992
 490
27997
 493
28003
 490
28008
 487
28014
 485
28019
 489
28024
 489
28030
 487
28036
 489
28042
 491
28047
 489
28053
 490
28058
 491
28063
 488
28069
 489
28075
 489
28081
 490
28086
 489
28092
 489
28097
 490
28102
 491
28108
 490
28113
 489
28120
 489
28125
 493
28130
 489
28136
 488
28141
 488
28147
 489
28152
 489
28158
 488
28164
 488
28169
 489
28175
 489
28180
 487
28186
 487
28191
 488
28197
 487
28203
 487
28208
 486
28214
 486
28219
 487
28225
 489
28230
 488
28236
 485
28241
 484
28247
 487
28253
 485
28258
 484
28264
 484
28269
 484
28275
 487
28280
 485
28285
 484
28292
 484
28297
 484
28303
 485
28308
 485
28313
 485
28319
 486
28324
 484
28331
 484
28336
 483
28342
 482
28347
 483
28352
 485
28358
 484
28363
 484
28369
 484
28375
 484
28381
 485
28386
 485
28391
 485
28397
 485
28402
 486
28408
 486
28413
 487
28420
 486
28425
 488
28430
 486
28436
 487
28441
 485
28447
 486
28452
 487
28459
 487
28464
 488
28469
 487
28475
 489
28480
 489
28486
 490
28491
 489
28497
 489
28503
 490
28508
 490
28514
 491
28519
 491
28525
 491
28530
 491
28535
 491
28541
 492
28547
 492
28553
 493
28558
 493
28564
 493
28569
 485
28574
 494
28580
 495
28585
 495
28592
 496
28597
 496
28603
 496
28608
 496
28613
 497
28619
 497
28624
 497
28631
 498
28636
 498
28642
 499
28647
 499
28652
 499
28658
 500
28663
 500
28669
 500
28675
 500
28681
 501
28686
 501
28691
 501
28697
 502
28702
 502
28708
 502
28713
 503
28720
 504
28725
 503
28730
 504
28736
 504
28741
 505
28747
 505
28752
 505
28758
 506
28764
 505
28769
 506
28775
 506
28780
 507
28786
 506
28791
 506
28796
 507
28803
 507
28808
 507
28814
 507
28819
 507
28825
 507
28830
 506
28835
 506
28841
 507
28847
 506
28853
 506
28858
 506
28864
 506
28869
 506
28874
 506
28880
 505
28886
 505
28892
 504
28897
 505
28903
 504
28908
 504
28913
 504
28919
 504
28924
 503
28931
 503
28936
 503
28942
 503
28947
 502
28952
 502
28958
 502
28963
 502
28969
 501
28975
 501
28980
 501
28986
 501
28991
 501
28997
 500
29002
 501
29008
 500
29014
 500
29019
 500
29025
 498
29030
 499
29036
 499
29041
 499
29047
 498
29052
 498
29058
 498
29064
 497
29069
 497
29075
 497
29080
 496
29086
 496
29091
 496
29096
 495
29103
 495
29108
 495
29114
 495
29119
 494
29125
 494
29130
 495
29135
 494
29142
 494
29147
 494
29153
 494
29158
 494
29164
 494
29169
 494
29174
 494
29180
 494
29186
 494
29192
 493
29197
 493
29203
 494
29208
 494
29213
 493
29219
 493
29224
 493
29231
 493
29236
 493
29241
 493
29247
 493
29252
 492
29258
 493
29263
 493
29270
 492
29275
 493
29280
 493
29286
 493
29291
 492
29297
 492
29302
 492
29308
 493
29314
 492
29319
 493
29325
 492
29330
 493
29336
 493
29341
 492
29347
 493
29352
 492
29358
 492
29364
 492
29369
 493
29375
 492
29380
 493
29386
 493
29391
 493
29396
 493
29403
 493
29408
 493
29414
 493
29419
 493
29425
 493
29430
 493
29435
 494
29442
 493
29447
 493
29453
 494
29458
 494
29463
 494
29469
 494
29474
 494
29480
 494
29486
 494
29492
 494
29497
 494
29502
 494
29508
 494
29513
 494
29519
 494
29524
 494
29531
 494
29536
 494
29541
 494
29547
 494
29552
 494
29558
 494
29563
 494
29570
 494
29575
 494
29580
 494
29586
 494
29591
 494
29597
 494
29602
 494
29608
 494
29614
 494
29619
 493
29625
 494
29630
 493
29636
 494
29641
 493
29647
 493
29652
 494
29658
 493
29664
 493
29669
 493
29675
 494
29680
 493
29686
 493
29691
 493
29697
 493
29703
 493
29708
 492
29714
 493
29719
 492
29724
 493
29730
 493
29735
 493
29742
 492
29747
 492
29753
 492
29758
 493
29763
 492
29769
 492
29774
 492
29780
 492
29786
 492
29792
 491
29797
 492
29802
 492
29808
 492
29813
 492
29819
 492
29825
 492
29831
 492
29836
 492
29841
 492
29847
 492
29852
 492
29858
 493
29863
 492
29870
 492
29875
 492
29880
 492
29886
 492
29891
 492
29897
 492
29902
 492
29908
 492
29914
 492
29919
 492
29925
 492
29930
 493
29936
 492
29941
 493
29946
 492
29953
 492
29958
 493
29964
 492
29969
 493
29975
 492
29980
 492
29985
 492
29991
 493
29997
 493
30003
 493
30008
 492
30014
 492
30019
 493
30024
 493
30030
 492
30035
 493
30042
 493
30047
 493
30053
 493
30058
 492
30063
 492
30069
 492
30074
 493
30081
 493
30086
 493
30092
 493
30097
 494
30102
 493
30108
 492
30113
 492
30119
 494
30125
 493
30131
 493
30136
 493
30141
 493
30147
 494
30152
 493
30158
 492
30163
 494
30170
 492
30175
 493
30180
 493
30186
 495
30191
 493
30197
 493
30202
 494
30208
 492
30214
 493
30219
 492
30225
 492
30230
 494
30236
 493
30241
 493
30246
 494
30253
 491
30258
 494
30264
 493
30269
 493
30275
 491
30280
 493
30285
 494
30291
 493
30297
 494
30303
 491
30308
 490
30314
 494
30319
 491
30324
 492
30330
 493
30336
 494
30342
 495
30347
 493
30353
 493
30358
 492
30363
 495
30369
 494
30374
 492
30381
 493
30386
 494
30392
 494
30397
 493
30402
 493
30408
 493
30413
 493
30419
 495
30425
 495
30430
 497
30436
 494
30441
 494
30447
 495
30452
 495
30458
 496
30464
 495
30469
 498
30475
 498
30480
 495
30486
 497
30491
 496
30497
 496
30502
 499
30508
 497
30514
 498
30519
 500
30525
 495
30530
 500
30536
 496
30541
 502
30546
 497
30553
 496
30558
 503
30564
 501
30569
 502
30575
 499
30580
 501
30585
 502
30592
 500
30597
 501
30603
 501
30608
 503
30614
 500
30619
 503
30624
 502
30630
 505
30636
 500
30642
 500
30647
 501
30653
 504
30658
 501
30663
 503
30669
 502
30674
 502
30681
 504
30686
 504
30691
 503
30697
 503
30702
 501
30708
 503
30713
 503
30720
 502
30725
 502
30730
 502
30736
 509
30741
 499
30747
 500
30752
 499
30758
 498
30764
 504
30769
 497
30775
 500
30780
 497
30786
 499
30791
 502
30797
 500
30802
 509
30808
 501
30814
 491
30819
 499
30825
 502
30830
 489
30836
 497
30841
 499
30846
 494
30853
 493
30858
 492
30864
 493
30869
 494
30875
 497
30880
 493
30885
 491
30892
 492
30897
 490
30903
 496
30908
 490
30913
 487
30919
 489
30924
 494
30930
 488
30936
 492
30942
 486
30947
 486
30952
 487
30958
 485
30963
 493
30969
 490
30974
 481
30981
 489
30986
 489
30991
 489
30997
 484
31002
 487
31008
 492
31013
 478
31020
 484
31025
 486
31030
 488
31036
 483
31041
 486
31047
 486
31052
 486
31058
 487
31064
 490
31069
 488
31075
 486
31080
 483
31086
 484
31091
 502
31097
 484
31102
 474
31108
 481
31114
 488
31119
 486
31125
 483
31130
 484
31136
 486
31141
 483
31147
 492
31153
 487
31158
 482
31164
 486
31169
 484
31174
 488
31180
 489
31185
 482
31192
 483
31197
 487
31203
 494
31208
 489
31213
 478
31219
 484
31224
 490
31230
 484
31236
 484
31242
 491
31247
 486
31252
 482
31258
 487
31263
 494
31269
 490
31275
 484
31281
 480
31286
 484
31291
 491
31297
 486
31302
 484
31308
 485
31313
 486
31320
 491
31325
 489
31330
 485
31336
 485
31341
 486
31347
 488
31352
 490
31358
 489
31364
 487
31369
 484
31375
 488
31380
 489
31386
 487
31391
 485
31396
 489
31403
 487
31408
 488
31414
 487
31419
 488
31425
 487
31430
 487
31435
 488
31441
 489
31447
 487
31453
 488
31458
 489
31464
 488
31469
 490
31474
 491
31480
 485
31485
 487
31492
 487
31497
 488
31503
 488
31508
 488
31513
 487
31519
 488
31524
 488
31531
 488
31536
 488
31542
 487
31547
 489
31552
 489
31558
 490
31563
 491
31569
 486
31575
 485
31581
 487
31586
 489
31591
 489
31597
 488
31602
 489
31608
 488
31613
 489
31620
 489
31625
 488
31630
 488
31636
 489
31641
 488
31647
 487
31652
 489
31657
 488
31664
 488
31669
 488
31675
 490
31680
 492
31686
 488
31691
 485
31696
 487
31703
 486
31708
 488
31714
 489
31719
 487
31725
 487
31730
 487
31735
 488
31741
 488
31747
 488
31753
 488
31758
 487
31764
 488
31769
 489
31774
 490
31780
 487
31785
 486
31792
 488
31797
 488
31803
 491
31808
 487
31813
 486
31819
 487
31824
 487
31831
 488
31836
 487
31842
 487
31847
 487
31852
 488
31858
 488
31863
 489
31869
 488
31875
 487
31880
 488
31886
 488
31891
 491
31897
 489
31902
 486
31908
 487
31913
 489
31919
 490
31925
 488
31930
 487
31936
 487
31941
 488
31947
 488
31952
 490
31958
 490
31964
 487
31969
 489
31975
 489
31980
 488
31986
 489
31991
 487
31996
 488
32003
 489
32008
 489
32014
 490
32019
 490
32025
 491
32030
 490
32035
 489
32041
 490
32047
 489
32053
 490
32058
 490
32064
 489
32069
 490
32074
 490
32080
 491
32086
 491
32092
 491
32097
 491
32102
 491
32108
 491
32113
 492
32119
 491
32124
 491
32131
 492
32136
 493
32141
 491
32147
 492
32152
 492
32158
 493
32163
 493
32169
 491
32175
 492
32180
 492
32186
 492
32191
 492
32197
 493
32202
 493
32208
 492
32214
 493
32219
 493
32225
 493
32230
 494
32236
 494
32241
 493
32247
 493
32252
 494
32258
 494
32264
 494
32269
 494
32275
 494
32280
 494
32285
 495
32291
 495
32296
 495
32303
 495
32308
 495
32314
 495
32319
 495
32324
 495
32330
 496
32335
 496
32342
 496
32347
 496
32353
 496
32358
 497
32363
 496
32369
 496
32374
 497
32380
 497
32386
 497
32392
 497
32397
 497
32402
 498
32408
 497
32413
 498
32419
 497
32424
 498
32431
 498
32436
 499
32441
 499
32447
 499
32452
 499
32458
 499
32463
 500
32470
 499
32475
 500
32480
 500
32486
 499
32491
 501
32497
 500
32502
 500
32507
 500
32514
 500
32519
 501
32525
 500
32530
 500
32536
 501
32541
 500
32546
 501
32552
 501
32558
 501
32564
 501
32569
 501
32575
 501
32580
 501
32585
 501
32591
 501
32596
 501
32603
 501
32608
 502
32614
 501
32619
 501
32624
 501
32630
 501
32635
 502
32642
 501
32647
 500
32653
 501
32658
 500
32663
 500
32669
 501
32674
 500
32680
 501
32686
 501
32692
 501
32697
 501
32702
 500
32708
 503
32713
 500
32719
 501
32724
 500
32731
 499
32736
 499
32741
 499
32747
 499
32752
 500
32758
 499
32763
 498
32769
 499
32775
 498
32780
 498
32786
 498
32791
 498
32797
 498
32802
 498
32807
 499
32814
 498
32819
 498
32825
 499
32830
 495
32836
 496
32841
 497
32846
 498
32852
 498
32858
 496
32864
 497
32869
 498
32875
 497
32880
 495
32885
 495
32891
 497
32897
 497
32903
 494
32908
 492
32914
 498
32919
 498
32924
 495
32930
 497
32935
 495
32942
 496
32947
 495
32953
 496
32958
 495
32963
 494
32969
 493
32974
 493
32980
 497
32986
 495
32991
 494
32997
 494
33002
 495
33008
 494
33013
 492
33019
 494
33025
 494
33030
 494
33036
 494
33041
 495
33047
 493
33052
 494
33058
 493
33063
 494
33069
 494
33075
 491
33080
 493
33086
 498
33091
 493
33097
 489
33102
 491
33107
 494
33114
 494
33119
 492
33125
 494
33130
 490
33136
 493
33141
 493
33146
 491
33153
 492
33158
 492
33164
 491
33169
 494
33175
 494
33180
 493
33185
 489
33191
 492
33197
 491
33203
 493
33208
 489
33213
 493
33219
 491
33224
 488
33230
 492
33235
 494
33242
 497
33247
 487
33252
 490
33258
 490
33263
 491
33269
 490
33274
 494
33281
 492
33286
 491
33291
 486
33297
 491
33302
 493
33308
 497
33313
 488
33319
 490
33325
 488
33330
 493
33336
 489
33341
 494
33347
 491
33352
 494
33358
 491
33363
 487
33369
 494
33375
 493
33380
 489
33386
 489
33391
 492
33397
 496
33402
 495
33408
 489
33414
 490
33419
 490
33425
 492
33430
 491
33435
 496
33441
 490
33446
 491
33453
 497
33458
 493
33464
 490
33469
 492
33474
 492
33480
 497
33485
 495
33491
 487
33497
 491
33503
 487
33508
 491
33513
 502
33519
 491
33524
 488
33530
 492
33536
 492
33542
 494
33547
 496
33552
 489
33558
 494
33563
 495
33569
 493
33574
 487
33581
 490
33586
 492
33591
 495
33597
 494
33602
 491
33608
 493
33613
 496
33619
 497
33625
 498
33630
 498
33636
 490
33641
 492
33647
 491
33652
 491
33657
 497
33664
 494
33669
 491
33675
 495
33680
 493
33686
 491
33691
 491
33696
 506
33702
 495
33708
 491
33714
 498
33719
 493
33725
 489
33730
 494
33735
 492
33741
 495
33746
 501
33753
 493
33758
 493
33764
 489
33769
 499
33774
 496
33780
 493
33785
 493
33792
 494
33797
 497
33803
 492
33808
 494
33813
 495
33819
 491
33824
 493
33830
 504
33836
 488
33842
 490
33847
 493
33852
 494
33858
 492
33863
 490
33869
 495
33874
 498
33881
 490
33886
 489
33891
 495
33897
 495
33902
 505
33908
 483
33913
 487
33918
 492
33925
 494
33930
 494
33936
 495
33941
 493
33947
 489
33952
 495
33957
 492
33964
 493
33969
 497
33975
 490
33980
 490
33986
 491
33991
 493
33996
 495
34002
 498
34008
 494
34014
 489
34019
 491
34025
 495
34030
 493
34035
 492
34041
 493
34046
 497
34053
 494
34058
 491
34064
 494
34069
 494
34074
 496
34080
 496
34085
 492
34092
 494
34097
 495
34103
 495
34108
 494
34113
 493
34119
 494
34124
 495
34130
 496
34136
 494
34141
 493
34147
 494
34152
 494
34158
 495
34163
 494
34169
 492
34174
 495
34180
 494
34186
 494
34191
 494
34197
 494
34202
 494
34208
 494
34213
 494
34219
 495
34225
 494
34230
 494
34236
 494
34241
 495
34247
 498
34252
 494
34257
 492
34264
 492
34269
 494
34275
 494
34280
 493
34286
 494
34291
 494
34296
 493
34302
 494
34308
 494
34314
 494
34319
 493
34325
 493
34330
 493
34335
 494
34341
 494
34347
 495
34353
 493
34358
 494
34364
 492
34369
 492
34374
 491
34380
 491
34385
 492
34392
 492
34397
 492
34402
 492
34408
 492
34413
 493
34419
 494
34424
 491
34430
 492
34436
 492
34441
 492
34447
 494
34452
 493
34458
 491
34463
 491
34469
 492
34475
 491
34480
 491
34486
 491
34491
 492
34497
 491
34502
 492
34508
 493
34513
 491
34519
 490
34525
 491
34530
 492
34536
 491
34541
 491
34547
 493
34552
 491
34557
 490
34564
 491
34569
 490
34575
 490
34580
 490
34586
 491
34591
 490
34596
 490
34603
 492
34608
 492
34614
 492
34619
 491
34624
 490
34630
 492
34635
 491
34641
 492
34647
 491
34653
 491
34658
 490
34663
 491
34669
 490
34674
 492
34680
 493
34685
 491
34692
 490
34697
 491
34702
 491
34708
 492
34713
 492
34719
 491
34724
 491
34731
 491
34736
 491
34741
 491
34747
 494
34752
 494
34758
 490
34763
 489
34769
 490
34775
 492
34780
 492
34786
 491
34791
 492
34797
 491
34802
 492
34808
 492
34813
 492
34819
 492
34825
 492
34830
 492
34836
 493
34841
 494
34847
 495
34852
 492
34857
 491
34864
 491
34869
 492
34875
 492
34880
 492
34885
 493
34891
 493
34896
 494
34903
 494
34908
 494
34914
 494
34919
 494
34924
 493
34930
 493
34935
 494
34941
 494
34947
 494
34953
 494
34958
 494
34963
 494
34969
 494
34974
 495
34980
 495
34985
 495
34992
 495
34997
 495
35002
 495
35008
 495
35013
 495
35019
 496
35024
 496
35031
 495
35036
 495
35041
 495
35047
 496
35052
 496
35058
 495
35063
 496
35069
 496
35075
 496
35080
 496
35086
 496
35091
 496
35097
 496
35102
 496
35107
 496
35113
 497
35119
 497
35125
 496
35130
 497
35136
 497
35141
 497
35146
 497
35152
 497
35158
 497
35164
 497
35169
 497
35175
 497
35180
 497
35185
 497
35191
 497
35196
 497
35203
 497
35208
 497
35214
 498
35219
 497
35224
 498
35230
 498
35235
 498
35241
 498
35247
 498
35253
 498
35258
 498
35263
 498
35269
 499
35274
 498
35280
 498
35286
 499
35292
 499
35297
 498
35302
 499
35308
 499
35313
 501
35319
 500
35324
 500
35331
 500
35336
 499
35341
 500
35347
 500
35352
 499
35358
 501
35363
 500
35368
 499
35375
 500
35380
 500
35386
 499
35391
 498
35397
 499
35402
 498
35407
 499
35414
 500
35419
 500
35425
 498
35430
 498
35436
 499
35441
 498
35446
 498
35452
 498
35458
 497
35464
 497
35469
 496
35475
 496
35480
 499
35485
 497
35491
 497
35496
 497
35503
 497
35508
 496
35514
 497
35519
 496
35524
 497
35530
 496
35535
 495
35542
 495
35547
 495
35553
 496
35558
 496
35563
 496
35569
 496
35574
 494
35580
 495
35586
 494
35591
 494
35597
 496
35602
 495
35608
 495
35613
 496
35619
 494
35624
 494
35630
 495
35636
 495
35641
 494
35647
 494
35652
 493
35658
 494
35663
 493
35668
 493
35675
 492
35680
 494
35686
 494
35691
 492
35697
 492
35702
 494
35707
 495
35714
 493
35719
 492
35725
 495
35730
 491
35736
 491
35741
 492
35746
 492
35752
 494
35758
 494
35764
 492
35769
 491
35775
 492
35780
 492
35785
 492
35791
 495
35796
 492
35803
 491
35808
 492
35814
 494
35819
 490
35824
 490
35830
 491
35835
 491
35842
 491
35847
 491
35852
 490
35858
 493
35863
 494
35869
 492
35874
 487
35880
 487
35886
 491
35891
 494
35897
 488
35902
 490
35908
 495
35913
 490
35919
 490
35924
 488
35930
 489
35936
 493
35941
 491
35947
 494
35952
 494
35958
 488
35963
 489
35969
 489
35975
 491
35980
 491
35986
 489
35991
 492
35997
 490
36002
 490
36007
 493
36014
 491
36019
 490
36025
 491
36030
 491
36036
 491
36041
 492
36046
 494
36052
 489
36058
 486
36064
 487
36069
 494
36074
 491
36080
 492
36085
 488
36091
 490
36097
 489
36103
 489
36108
 492
36113
 492
36119
 494
36124
 490
36130
 488
36135
 494
36142
 490
36147
 490
36152
 491
36158
 489
36163
 490
36169
 496
36174
 485
36180
 490
36186
 491
36191
 493
36197
 493
36202
 488
36208
 491
36213
 493
36219
 493
36225
 492
36230
 489
36236
 488
36241
 491
36247
 490
36252
 491
36258
 491
36263
 492
36269
 491
36275
 491
36280
 495
36286
 494
36291
 489
36297
 489
36302
 491
36307
 491
36314
 489
36319
 492
36325
 493
36330
 492
36335
 491
36341
 489
36346
 502
36353
 494
36358
 488
36364
 489
36369
 491
36374
 489
36380
 492
36385
 493
36391
 495
36397
 491
36403
 488
36408
 492
36413
 494
36419
 494
36424
 490
36430
 491
36435
 489
36442
 493
36447
 493
36452
 492
36458
 491
36463
 488
36469
 491
36474
 497
36481
 495
36486
 493
36491
 492
36497
 492
36502
 491
36508
 490
36513
 488
36519
 490
36525
 492
36530
 492
36536
 493
36541
 494
36547
 495
36552
 496
36557
 493
36563
 491
36569
 492
36575
 491
36580
 491
36586
 493
36591
 494
36596
 494
36602
 492
36608
 493
36614
 492
36619
 492
36625
 495
36630
 489
36635
 488
36641
 491
36646
 491
36653
 493
36658
 494
36664
 494
36669
 494
36674
 493
36680
 497
36685
 497
36691
 488
36697
 490
36703
 495
36708
 492
36713
 492
36719
 493
36724
 494
36730
 495
36736
 493
36742
 490
36747
 497
36752
 495
36758
 498
36763
 488
36769
 491
36774
 492
36781
 492
36786
 493
36791
 496
36797
 491
36802
 490
36808
 490
36813
 496
36818
 495
36825
 492
36830
 489
36836
 490
36841
 492
36847
 494
36852
 491
36857
 491
36864
 494
36869
 491
36875
 494
36880
 494
36886
 491
36891
 493
36896
 496
36902
 491
36908
 492
36914
 494
36919
 491
36925
 490
36930
 492
36935
 492
36941
 491
36946
 490
36953
 493
36958
 495
36964
 492
36969
 492
36974
 491
36980
 494
36985
 501
36992
 490
36997
 488
37003
 489
37008
 490
37013
 499
37019
 491
37024
 491
37030
 494
37036
 490
37041
 490
37047
 497
37052
 495
37058
 490
37063
 487
37069
 490
37074
 502
37080
 493
37086
 486
37091
 490
37097
 494
37102
 498
37108
 491
37113
 495
37118
 492
37125
 489
37130
 491
37136
 498
37141
 495
37147
 491
37152
 489
37157
 490
37164
 494
37169
 489
37175
 493
37180
 494
37186
 499
37191
 495
37196
 486
37202
 496
37208
 495
37214
 487
37219
 489
37225
 494
37230
 492
37235
 492
37241
 491
37246
 494
37253
 494
37258
 491
37264
 493
37269
 495
37274
 492
37280
 489
37285
 499
37292
 498
37297
 495
37302
 492
37308
 492
37313
 491
37319
 491
37324
 493
37330
 489
37336
 493
37341
 497
37347
 498
37352
 490
37358
 490
37363
 492
37369
 493
37374
 494
37380
 497
37386
 493
37391
 492
37397
 494
37402
 494
37408
 496
37413
 494
37419
 492
37425
 494
37430
 499
37436
 492
37441
 490
37447
 492
37452
 493
37457
 494
37464
 493
37469
 494
37475
 494
37480
 494
37486
 494
37491
 494
37496
 494
37502
 494
37508
 496
37514
 495
37519
 496
37524
 496
37530
 491
37535
 494
37541
 499
37547
 498
37553
 492
37558
 493
37563
 494
37569
 494
37574
 495
37580
 495
37585
 494
37592
 495
37597
 495
37602
 495
37608
 496
37613
 496
37619
 496
37624
 496
37630
 495
37636
 494
37641
 496
37647
 498
37652
 495
37658
 493
37663
 494
37669
 495
37675
 494
37680
 495
37686
 495
37691
 495
37697
 495
37702
 495
37708
 495
37713
 495
37719
 496
37725
 496
37730
 496
37736
 498
37741
 496
37747
 493
37752
 492
37757
 494
37764
 494
37769
 494
37775
 494
37780
 494
37785
 494
37791
 494
37796
 493
37803
 493
37808
 493
37814
 494
37819
 493
37824
 498
37830
 493
37835
 490
37841
 493
37847
 493
37853
 492
37858
 492
37863
 492
37869
 492
37874
 492
37880
 493
37885
 493
37892
 493
37897
 491
37902
 493
37908
 493
37913
 493
37919
 493
37924
 493
37931
 493
37936
 493
37941
 492
37947
 494
37952
 493
37958
 491
37963
 491
37969
 492
37975
 491
37980
 493
37986
 493
37991
 493
37997
 491
38002
 492
38007
 493
38013
 493
38019
 492
38025
 492
38030
 492
38036
 493
38041
 492
38046
 491
38052
 492
38057
 492
38064
 493
38069
 493
38075
 494
38080
 492
38085
 491
38091
 491
38096
 491
38103
 492
38108
 491
38114
 494
38119
 493
38124
 491
38130
 492
38135
 492
38141
 492
38147
 492
38153
 492
38158
 494
38163
 494
38169
 492
38174
 492
38180
 492
38185
 492
38192
 493
38197
 491
38202
 492
38208
 493
38213
 492
38219
 493
38224
 493
38231
 493
38236
 494
38241
 494
38247
 493
38252
 492
38258
 494
38263
 494
38268
 493
38275
 493
38280
 493
38286
 494
38291
 494
38297
 494
38302
 494
38307
 494
38313
 494
38319
 495
38325
 494
38330
 495
38336
 496
38341
 495
38346
 493
38352
 495
38358
 495
38364
 496
38369
 495
38375
 495
38380
 496
38385
 495
38391
 495
38396
 496
38403
 497
38408
 497
38414
 495
38419
 495
38424
 496
38430
 497
38435
 496
38441
 496
38447
 496
38453
 496
38458
 497
38463
 497
38469
 497
38474
 497
38480
 498
38486
 498
38492
 498
38497
 498
38502
 497
38508
 497
38513
 498
38519
 500
38524
 500
38530
 499
38536
 498
38541
 499
38547
 499
38552
 499
38558
 500
38563
 499
38568
 499
38575
 498
38580
 500
38586
 500
38591
 498
38597
 499
38602
 499
38607
 499
38614
 496
38619
 499
38625
 502
38630
 500
38636
 497
38641
 500
38646
 497
38652
 499
38658
 498
38664
 497
38669
 499
38675
 499
38680
 496
38685
 500
38691
 499
38696
 498
38703
 497
38708
 497
38714
 498
38719
 500
38724
 497
38730
 496
38735
 495
38742
 498
38747
 498
38753
 497
38758
 496
38763
 497
38769
 499
38774
 498
38780
 496
38786
 498
38791
 496
38797
 495
38802
 498
38808
 495
38813
 497
38819
 497
38824
 495
38830
 495
38836
 493
38841
 494
38847
 499
38852
 497
38858
 494
38863
 497
38868
 501
38875
 493
38880
 495
38886
 492
38891
 494
38897
 496
38902
 495
38907
 491
38914
 490
38919
 499
38925
 497
38930
 499
38936
 495
38941
 492
38946
 489
38952
 494
38958
 494
38964
 498
38969
 494
38975
 494
38980
 495
38985
 498
38991
 491
38996
 490
39003
 496
39008
 493
39013
 493
39019
 492
39024
 494
39030
 496
39035
 498
39042
 499
39047
 492
39052
 488
39058
 498
39063
 493
39069
 494
39074
 494
39080
 495
39086
 501
39091
 497
39097
 494
39102
 492
39108
 494
39113
 494
39119
 494
39124
 501
39130
 492
39136
 495
39141
 496
39147
 496
39152
 497
39158
 491
39163
 504
39169
 492
39175
 487
39180
 494
39186
 493
39191
 497
39197
 501
39202
 486
39207
 495
39214
 494
39219
 496
39225
 489
39230
 496
39236
 493
39241
 497
39246
 491
39252
 490
39258
 496
39264
 502
39269
 488
39274
 488
39280
 494
39285
 486
39291
 495
39297
 494
39303
 490
39308
 490
39313
 497
39319
 497
39324
 485
39330
 497
39335
 490
39342
 489
39347
 490
39352
 501
39358
 497
39363
 485
39369
 492
39374
 495
39380
 497
39386
 489
39391
 491
39397
 494
39402
 491
39408
 490
39413
 497
39419
 496
39425
 495
39430
 492
39436
 491
39441
 487
39447
 492
39452
 489
39458
 492
39463
 492
39469
 494
39475
 491
39480
 492
39486
 494
39491
 494
39496
 489
39502
 495
39507
 490
39514
 502
39519
 493
39525
 486
39530
 496
39535
 487
39541
 493
39546
 497
39553
 492
39558
 489
39564
 493
39569
 502
39574
 487
39580
 494
39585
 487
39591
 488
39597
 496
39603
 499
39608
 492
39613
 496
39619
 490
39624
 493
39630
 483
39635
 491
39642
 494
39647
 494
39652
 489
39658
 486
39663
 490
39669
 497
39674
 499
39681
 487
39686
 491
39691
 482
39697
 497
39702
 493
39708
 490
39713
 487
39719
 491
39725
 492
39730
 501
39736
 499
39741
 482
39747
 491
39752
 493
39757
 501
39763
 490
39769
 486
39775
 491
39780
 492
39786
 488
39791
 502
39796
 505
39802
 489
39808
 485
39814
 485
39819
 495
39825
 497
39830
 486
39835
 496
39841
 503
39846
 496
39853
 493
39858
 492
39864
 494
39869
 494
39874
 487
39880
 492
39885
 494
39891
 508
39897
 473
39903
 482
39908
 493
39913
 499
39919
 483
39924
 500
39930
 480
39936
 502
39942
 510
39947
 491
39952
 493
39958
 514
39963
 487
39969
 479
39974
 488
39980
 487
39986
 490
39991
 487
39997
 500
40002
 487
40008
 489
40013
 499
40018
 486
40025
 487
40030
 494
40036
 489
40041
 500
40047
 486
40052
 490
40057
 495
40064
 492
40069
 494
40075
 493
40080
 488
40086
 491
40091
 491
40096
 491
40102
 491
40108
 491
40114
 493
40119
 492
40125
 492
40130
 492
40135
 492
40141
 492
40146
 492
40153
 494
40158
 491
40164
 493
40169
 492
40174
 491
40180
 490
40185
 491
40192
 492
40197
 493
40203
 493
40208
 492
40213
 491
40219
 491
40224
 492
40230
 493
40236
 493
40241
 494
40247
 493
40252
 495
40258
 495
40263
 494
40269
 494
40274
 495
40280
 495
40286
 495
40291
 497
40297
 500
40302
 500
40308
 497
40313
 493
40318
 493
40325
 495
40330
 498
40336
 498
40341
 497
40347
 497
40352
 498
40357
 498
40364
 501
40369
 499
40375
 497
40380
 499
40386
 499
40391
 502
40396
 500
40402
 498
40408
 501
40414
 500
40419
 497
40425
 498
40430
 498
40435
 500
40441
 500
40446
 499
40453
 500
40458
 500
40463
 501
40469
 501
40474
 500
40480
 502
40485
 503
40492
 502
40497
 502
40502
 500
40508
 503
40513
 502
40519
 501
40524
 500
40530
 503
40536
 503
40541
 499
40547
 499
40552
 500
40558
 501
40563
 501
40569
 501
40574
 501
40580
 501
40586
 501
40591
 501
40597
 502
40602
 502
40608
 503
40613
 500
40619
 498
40625
 500
40630
 500
40636
 499
40641
 498
40647
 499
40652
 500
40657
 499
40664
 501
40669
 500
40675
 499
40680
 500
40686
 498
40691
 498
40696
 500
40702
 500
40708
 499
40714
 498
40719
 498
40724
 499
40730
 499
40735
 499
40741
 498
40747
 498
40753
 498
40758
 499
40763
 501
40769
 500
40774
 497
40780
 497
40785
 496
40792
 497
40797
 497
40802
 498
40808
 497
40813
 497
40819
 498
40824
 497
40830
 497
40836
 497
40841
 498
40847
 496
40852
 497
40858
 500
40863
 497
40869
 496
40875
 495
40880
 496
40886
 496
40891
 498
40897
 498
40902
 498
40908
 496
40913
 496
40919
 496
40925
 497
40930
 497
40936
 497
40941
 498
40946
 496
40952
 495
40957
 497
40964
 497
40969
 496
40975
 496
40980
 496
40985
 496
40991
 496
40996
 497
41003
 496
41008
 495
41014
 496
41019
 496
41024
 496
41030
 496
41035
 496
41041
 496
41047
 495
41053
 496
41058
 496
41063
 496
41069
 496
41074
 495
41080
 494
41085
 495
41092
 495
41097
 495
41102
 494
41108
 494
41113
 494
41119
 494
41124
 495
41131
 495
41136
 493
41141
 493
41147
 493
41152
 493
41158
 494
41163
 493
41168
 492
41175
 492
41180
 493
41186
 492
41191
 492
41197
 493
41202
 491
41207
 491
41213
 491
41219
 491
41225
 492
41230
 491
41236
 491
41241
 490
41246
 492
41252
 491
41257
 490
41264
 490
41269
 489
41275
 490
41280
 490
41285
 490
41291
 489
41296
 491
41303
 489
41308
 488
41314
 489
41319
 490
41324
 492
41330
 490
41335
 490
41341
 490
41347
 489
41353
 490
41358
 491
41363
 491
41369
 490
41374
 490
41380
 490
41385
 489
41391
 491
41397
 492
41402
 490
41408
 489
41413
 490
41419
 490
41424
 491
41430
 490
41436
 493
41441
 490
41447
 490
41452
 491
41458
 492
41463
 490
41468
 490
41475
 490
41480
 492
41486
 491
41491
 491
41497
 491
41502
 490
41507
 490
41513
 490
41519
 491
41525
 491
41530
 490
41536
 490
41541
 490
41546
 490
41552
 491
41558
 491
41564
 491
41569
 490
41575
 491
41580
 490
41585
 491
41591
 491
41596
 490
41603
 491
41608
 489
41614
 491
41619
 491
41624
 492
41630
 490
41635
 489
41641
 491
41647
 491
41652
 493
41658
 491
41663
 488
41669
 490
41674
 492
41680
 492
41686
 491
41691
 490
41697
 491
41702
 490
41708
 491
41713
 492
41719
 489
41724
 491
41730
 493
41736
 492
41741
 492
41747
 493
41752
 490
41758
 490
41763
 490
41768
 491
41775
 492
41780
 492
41786
 491
41791
 490
41796
 492
41802
 492
41807
 492
41814
 492
41819
 492
41825
 491
41830
 491
41835
 493
41841
 492
41846
 490
41852
 490
41858
 491
41864
 491
41869
 492
41874
 492
41880
 491
41885
 490
41891
 491
