0
 46
5
 45
10
 44
16
 44
21
 43
26
 42
31
 43
37
 43
43
 44
48
 44
53
 43
59
 44
64
 45
69
 44
74
 45
80
 46
86
 45
91
 45
96
 46
102
 46
107
 46
112
 46
117
 47
123
 48
129
 48
134
 49
140
 50
145
 51
150
 52
155
 54
161
 55
166
 56
172
 57
178
 58
183
 59
188
 59
194
 60
199
 60
204
 61
209
 63
216
 64
221
 65
226
 66
232
 67
237
 69
242
 69
247
 70
253
 71
259
 72
264
 73
270
 75
275
 77
280
 77
286
 78
291
 79
296
 80
302
 81
308
 81
313
 83
318
 83
324
 84
329
 83
334
 84
339
 83
346
 83
351
 82
356
 82
362
 82
367
 81
372
 81
377
 81
384
 80
389
 80
394
 80
400
 81
405
 81
410
 81
416
 82
421
 82
427
 81
432
 82
438
 82
443
 82
448
 81
454
 81
459
 82
464
 82
470
 82
476
 82
481
 82
486
 81
492
 81
497
 82
502
 81
507
 81
514
 81
519
 83
524
 82
530
 82
535
 82
540
 82
546
 82
551
 81
557
 80
562
 80
568
 79
573
 79
578
 79
584
 78
589
 77
594
 76
600
 75
606
 74
611
 72
616
 71
622
 71
627
 71
632
 69
637
 69
644
 67
649
 66
654
 65
660
 65
665
 64
670
 62
676
 62
681
 61
687
 61
692
 60
698
 60
703
 59
708
 58
714
 59
719
 59
724
 58
730
 58
736
 59
741
 58
746
 58
752
 59
757
 59
762
 59
769
 60
774
 59
779
 59
784
 59
790
 59
795
 59
800
 59
806
 59
812
 59
817
 60
822
 60
828
 60
833
 61
838
 61
844
 62
849
 62
855
 64
860
 64
866
 64
871
 65
876
 66
882
 66
887
 67
892
 67
899
 67
904
 67
909
 66
914
 67
920
 66
925
 65
930
 66
936
 67
942
 67
947
 67
952
 68
958
 68
963
 67
968
 66
974
 67
979
 67
985
 67
991
 66
996
 67
1001
 66
1006
 66
1012
 66
1017
 66
1022
 65
1029
 64
1034
 63
1039
 63
1045
 61
1050
 61
1055
 60
1061
 59
1067
 58
1072
 57
1078
 57
1083
 56
1088
 56
1094
 56
1099
 55
1104
 54
1111
 55
1116
 54
1121
 53
1127
 53
1132
 53
1137
 53
1143
 53
1148
 52
1155
 52
1160
 52
1165
 50
1171
 51
1176
 51
1181
 51
1187
 51
1192
 52
1198
 52
1204
 51
1209
 51
1214
 53
1220
 52
1225
 51
1230
 52
1236
 53
1242
 53
1247
 52
1253
 53
1258
 52
1263
 52
1269
 52
1274
 52
1280
 51
1286
 51
1291
 51
1296
 52
1302
 51
1307
 51
1312
 51
1318
 51
1324
 51
1329
 51
1335
 51
1340
 51
1345
 50
1351
 50
1356
 51
1361
 51
1368
 50
1373
 51
1378
 51
1384
 50
1389
 51
1394
 50
1400
 50
1405
 49
1411
 49
1417
 49
1422
 48
1427
 50
1433
 50
1438
 51
1443
 50
1449
 49
1455
 52
1460
 61
1466
 62
1471
 60
1476
 58
1482
 58
1487
 59
1492
 58
1499
 58
1504
 57
1509
 56
1515
 54
1520
 54
1525
 53
1531
 53
1537
 53
1542
 54
1548
 56
1553
 58
1558
 58
1564
 60
1569
 60
1574
 60
1581
 60
1586
 60
1591
 60
1597
 59
1602
 60
1607
 61
1613
 60
1618
 59
1624
 63
1630
 65
1635
 68
1640
 69
1646
 70
1651
 70
1656
 71
1662
 71
1668
 70
1673
 68
1679
 66
1684
 64
1689
 61
1695
 60
1700
 59
1705
 57
1712
 56
1717
 57
1722
 56
1728
 56
1733
 66
1739
 70
1744
 68
1750
 66
1756
 66
1761
 66
1766
 72
1772
 79
1777
 77
1782
 74
1788
 73
1794
 71
1799
 70
1805
 80
1810
 92
1815
 92
1821
 95
1826
 99
1831
 96
1838
 94
1843
 89
1848
 91
1854
 92
1859
 91
1864
 94
1870
 104
1875
 102
1881
 102
1887
 106
1892
 103
1897
 99
1903
 96
1908
 97
1913
 102
1920
 110
1925
 113
1931
 126
1936
 124
1941
 118
1947
 118
1952
 118
1958
 117
1964
 117
1969
 119
1975
 134
1980
 143
1985
 136
1991
 140
1996
 148
2002
 147
2008
 148
2013
 169
2019
 170
2024
 170
2029
 164
2035
 161
2040
 164
2046
 167
2052
 168
2057
 176
2063
 186
2068
 186
2073
 189
2079
 186
2084
 191
2091
 204
2096
 201
2101
 209
2107
 209
2112
 212
2117
 222
2123
 216
2128
 223
2135
 242
2140
 235
2145
 230
2151
 229
2156
 230
2162
 232
2167
 242
2172
 247
2179
 260
2184
 271
2189
 273
2195
 270
2200
 269
2206
 278
2211
 305
2216
 309
2223
 304
2228
 321
2233
 334
2239
 340
2244
 335
2250
 334
2255
 336
2260
 333
2267
 336
2272
 343
2277
 348
2283
 351
2288
 375
2294
 402
2299
 418
2305
 410
2311
 398
2316
 413
2322
 417
2327
 420
2332
 427
2338
 412
2343
 407
2349
 409
2355
 402
2360
 405
2366
 403
2371
 412
2376
 409
2382
 409
2387
 422
2393
 434
2399
 434
2404
 453
2410
 447
2415
 441
2420
 457
2426
 452
2432
 425
2437
 424
2443
 460
2448
 443
2454
 433
2459
 447
2464
 435
2470
 484
2476
 480
2481
 455
2487
 447
2492
 421
2498
 407
2503
 455
2508
 447
2514
 461
2520
 481
2526
 454
2531
 443
2536
 433
2542
 429
2547
 436
2552
 444
2558
 462
2564
 475
2570
 480
2575
 475
2580
 472
2586
 468
2591
 484
2596
 486
2603
 515
2608
 622
2614
 596
2619
 584
2624
 584
2630
 589
2635
 567
2640
 538
2647
 524
2652
 528
2658
 566
2663
 543
2668
 552
2674
 528
2679
 526
2684
 518
2691
 581
2696
 591
2702
 576
2707
 563
2712
 573
2718
 542
2723
 521
2729
 532
2735
 507
2740
 541
2746
 600
2751
 561
2756
 569
2762
 581
2767
 578
2774
 553
2779
 598
2784
 648
2790
 630
2795
 593
2800
 560
2806
 543
2811
 548
2818
 531
2823
 551
2828
 652
2834
 652
2839
 620
2844
 621
2850
 640
2855
 623
2862
 598
2867
 566
2872
 559
2878
 619
2883
 600
2888
 563
2894
 563
2899
 544
2906
 534
2911
 556
2916
 569
2922
 564
2927
 531
2933
 529
2938
 519
2944
 506
2950
 502
2955
 504
2960
 482
2966
 472
2971
 469
2977
 513
2982
 542
2988
 518
2994
 505
2999
 537
3004
 512
3010
 493
3015
 462
3021
 469
3026
 495
3032
 503
3038
 489
3043
 468
3048
 463
3054
 453
3059
 457
3065
 498
3070
 476
3076
 510
3082
 506
3087
 484
3092
 461
3098
 438
3103
 438
3109
 461
3115
 485
3120
 460
3126
 486
3131
 472
3137
 460
3142
 436
3147
 408
3153
 414
3159
 440
3164
 416
3170
 392
3175
 385
3181
 422
3186
 397
3191
 378
3197
 379
3203
 387
3208
 386
3214
 419
3219
 414
3225
 396
3230
 390
3235
 378
3241
 359
3247
 349
3252
 345
3258
 337
3263
 329
3269
 322
3274
 316
3279
 310
3286
 305
3291
 301
3296
 295
3302
 288
3307
 282
3313
 278
3318
 276
3323
 279
3330
 270
3335
 263
3341
 261
3346
 261
3351
 254
3357
 237
3362
 222
3367
 209
3374
 199
3379
 189
3385
 179
3390
 168
3395
 158
3401
 148
3406
 141
3411
 136
3418
 133
3423
 131
3429
 132
3434
 131
3439
 132
3445
 134
3450
 138
3456
 137
3462
 132
3467
 143
3473
 158
3478
 166
3483
 175
3489
 186
3494
 195
3500
 201
3506
 213
3511
 227
3517
 235
3522
 243
3527
 249
3533
 257
3538
 269
3545
 279
3550
 285
3555
 299
3561
 314
3566
 332
3571
 346
3577
 359
3582
 371
3589
 382
3594
 394
3599
 406
3605
 412
3610
 417
3615
 429
3621
 441
3627
 450
3633
 460
3638
 469
3643
 474
3649
 481
3654
 489
3659
 494
3665
 502
3671
 510
3677
 518
3682
 525
3687
 529
3693
 532
3698
 532
3703
 535
3709
 542
3715
 550
3721
 556
3726
 559
3731
 561
3737
 564
3742
 565
3748
 563
3753
 565
3759
 569
3765
 571
3770
 572
3775
 573
3781
 571
3786
 573
3792
 575
3798
 573
3803
 566
3809
 562
3814
 565
3819
 571
3825
 574
3830
 574
3836
 573
3842
 573
3847
 571
3853
 567
3858
 565
3863
 562
3869
 557
3874
 553
3880
 551
3886
 543
3891
 536
3897
 533
3902
 533
3908
 528
3913
 527
3918
 524
3924
 521
3930
 518
3935
 514
3941
 512
3946
 503
3952
 488
3957
 483
3962
 482
3969
 482
3974
 479
3979
 480
3985
 480
3990
 469
3996
 459
4001
 457
4006
 451
4013
 446
4018
 441
4023
 434
4029
 428
4034
 422
4040
 416
4045
 409
4050
 403
4057
 396
4062
 389
4068
 384
4073
 377
4078
 371
4084
 363
4089
 355
4094
 347
4101
 340
4106
 331
4112
 323
4117
 316
4122
 309
4128
 299
4133
 290
4139
 282
4145
 272
4150
 263
4156
 253
4161
 245
4166
 235
4172
 227
4177
 218
4183
 210
4189
 201
4194
 192
4200
 182
4205
 173
4210
 162
4216
 153
4221
 144
4227
 136
4233
 128
4238
 122
4244
 115
4249
 110
4254
 105
4260
 101
4265
 98
4271
 96
4277
 94
4282
 93
4287
 92
4293
 93
4298
 94
4303
 96
4310
 101
4315
 106
4321
 107
4326
 107
4331
 105
4337
 108
4342
 115
4347
 116
4354
 116
4359
 123
4365
 121
4370
 121
4375
 126
4381
 133
4386
 136
4392
 134
4398
 137
4403
 144
4409
 159
4414
 162
4419
 158
4425
 169
4430
 167
4436
 162
4442
 163
4447
 167
4453
 170
4458
 167
4463
 166
4469
 176
4474
 180
4481
 186
4486
 188
4491
 190
4497
 189
4502
 186
4507
 193
4513
 194
4518
 192
4525
 201
4530
 192
4535
 193
4541
 190
4546
 183
4551
 189
4557
 197
4562
 202
4569
 194
4574
 193
4579
 195
4585
 201
4590
 208
4596
 206
4601
 200
4606
 200
4613
 208
4618
 213
4623
 208
4629
 205
4634
 217
4640
 215
4645
 211
4651
 206
4657
 211
4662
 217
4667
 223
4673
 219
4678
 215
4684
 218
4689
 213
4695
 209
4701
 209
4706
 210
4711
 213
4717
 218
4722
 217
4728
 214
4733
 217
4739
 223
4745
 235
4750
 232
4755
 230
4761
 228
4766
 230
4772
 230
4777
 230
4783
 235
4789
 233
4794
 225
4800
 223
4805
 222
4810
 221
4816
 220
4822
 221
4827
 222
4833
 221
4838
 219
4844
 218
4849
 218
4854
 218
4860
 217
4866
 217
4871
 216
4877
 215
4882
 215
4888
 215
4893
 213
4898
 212
4904
 209
4910
 205
4915
 208
4921
 209
4926
 210
4932
 215
4937
 215
4942
 207
4948
 197
4954
 191
4960
 188
4965
 191
4970
 197
4976
 203
4981
 201
4986
 196
4993
 191
4998
 183
5004
 179
5009
 179
5014
 179
5020
 200
5025
 200
5030
 188
5037
 177
5042
 175
5048
 174
5053
 183
5058
 187
5064
 178
5069
 172
5074
 166
5081
 161
5086
 161
5092
 171
5097
 173
5102
 181
5108
 179
5113
 172
5118
 170
5125
 166
5130
 163
5136
 153
5141
 148
5146
 144
5152
 141
5157
 145
5164
 147
5169
 148
5174
 165
5180
 165
5185
 162
5190
 159
5196
 150
5201
 145
5208
 142
5213
 141
5218
 142
5224
 145
5229
 149
5234
 153
5240
 154
5245
 155
5252
 156
5257
 163
5262
 162
5268
 158
5273
 156
5278
 153
5284
 154
5289
 169
5296
 165
5301
 161
5306
 160
5312
 162
5317
 163
5322
 161
5328
 165
5334
 168
5340
 163
5345
 160
5350
 158
5356
 155
5361
 158
5367
 159
5372
 170
5378
 190
5384
 185
5389
 179
5394
 171
5400
 171
5405
 178
5411
 181
5416
 176
5422
 166
5428
 162
5433
 162
5438
 158
5444
 163
5449
 167
5455
 161
5460
 166
5466
 163
5472
 153
5477
 146
5482
 155
5488
 157
5493
 155
5499
 148
5505
 147
5510
 149
5516
 142
5521
 137
5527
 130
5532
 124
5537
 119
5543
 113
5549
 108
5554
 104
5560
 103
5565
 111
5571
 109
5576
 109
5581
 106
5587
 105
5593
 100
5598
 97
5604
 96
5609
 94
5614
 101
5620
 102
5625
 99
5632
 96
5637
 96
5642
 93
5648
 96
5653
 97
5658
 96
5664
 92
5669
 94
5675
 99
5681
 98
5686
 94
5691
 97
5697
 99
5702
 99
5707
 96
5713
 96
5719
 92
5724
 95
5730
 96
5735
 92
5740
 88
5746
 94
5751
 100
5756
 103
5763
 100
5768
 99
5773
 100
5779
 97
5784
 96
5790
 98
5795
 107
5800
 112
5807
 113
5812
 116
5817
 117
5823
 112
5828
 110
5834
 107
5839
 103
5844
 108
5851
 113
5856
 108
5861
 104
5867
 100
5872
 97
5877
 100
5883
 105
5889
 105
5895
 103
5900
 102
5905
 100
5911
 99
5916
 102
5921
 102
5927
 98
5933
 98
5939
 96
5944
 97
5949
 99
5955
 102
5960
 102
5965
 99
5971
 98
5977
 97
5982
 98
5988
 100
5993
 101
5998
 99
6004
 97
6009
 98
6014
 103
6021
 103
6026
 101
6032
 96
6037
 93
6042
 92
6048
 93
6053
 96
6059
 97
6065
 93
6070
 89
6075
 88
6081
 90
6086
 95
6091
 95
6097
 94
6103
 96
6108
 93
6114
 93
6119
 99
6124
 100
6130
 102
6135
 99
6140
 95
6147
 92
6152
 90
6157
 87
6163
 89
6168
 89
6173
 88
6179
 89
6184
 86
6190
 83
6196
 85
6201
 86
6206
 89
6212
 95
6217
 95
6223
 95
6228
 93
6234
 88
6240
 85
6245
 82
6250
 80
6256
 81
6261
 82
6266
 91
6273
 94
6278
 91
6283
 86
6289
 82
6294
 80
6299
 77
6305
 79
6310
 84
6316
 101
6322
 100
6327
 110
6332
 112
6338
 110
6343
 111
6349
 111
6354
 107
6360
 111
6366
 108
6371
 112
6376
 111
6382
 108
6387
 103
6393
 99
6398
 94
6404
 105
6410
 105
6415
 102
6420
 105
6426
 115
6431
 122
6437
 129
6443
 129
6448
 122
6454
 119
6459
 130
6464
 128
6470
 126
6475
 125
6481
 130
6487
 130
6492
 131
6498
 127
6503
 130
6508
 131
6514
 126
6519
 120
6525
 126
6531
 128
6536
 141
6542
 135
6547
 137
6552
 137
6558
 139
6563
 150
6569
 148
6575
 145
6580
 153
6586
 158
6591
 184
6596
 185
6602
 214
6607
 244
6614
 271
6619
 259
6624
 277
6630
 324
6635
 368
6641
 388
6646
 410
6651
 398
6658
 373
6663
 361
6668
 413
6674
 395
6679
 373
6685
 367
6690
 361
6695
 364
6702
 348
6707
 357
6712
 400
6718
 422
6723
 423
6729
 515
6734
 551
6739
 607
6746
 588
6751
 553
6756
 540
6762
 520
6767
 621
6773
 656
6778
 650
6784
 650
6790
 633
6795
 601
6801
 570
6806
 540
6811
 515
6817
 527
6822
 553
6828
 546
6834
 544
6839
 531
6845
 539
6850
 517
6855
 534
6861
 531
6866
 528
6872
 519
6878
 527
6883
 539
6889
 538
6894
 539
6899
 523
6905
 528
6910
 512
6916
 508
6922
 595
6927
 629
6933
 617
6938
 586
6943
 559
6949
 603
6955
 585
6960
 587
6966
 627
6971
 641
6977
 663
6982
 639
6987
 612
6993
 602
6999
 624
7005
 654
7010
 683
7015
 667
7021
 792
7026
 843
7031
 837
7037
 845
7043
 815
7049
 824
7054
 844
7059
 820
7065
 823
7070
 848
7075
 865
7081
 946
7087
 910
7093
 892
7098
 884
7103
 886
7109
 857
7114
 834
7119
 786
7126
 812
7131
 902
7137
 889
7142
 873
7147
 876
7153
 835
7158
 802
7164
 849
7170
 826
7175
 823
7181
 795
7186
 765
7191
 739
7197
 732
7202
 781
7208
 853
7214
 890
7219
 859
7225
 822
7230
 813
7235
 793
7241
 759
7246
 734
7252
 802
7258
 818
7263
 798
7269
 772
7274
 786
7279
 805
7285
 812
7290
 827
7297
 845
7302
 880
7307
 871
7313
 839
7318
 820
7323
 810
7329
 849
7334
 832
7341
 821
7346
 819
7351
 803
7357
 820
7362
 886
7368
 914
7373
 913
7378
 925
7385
 950
7390
 937
7395
 889
7401
 967
7406
 984
7412
 968
7417
 933
7422
 893
7429
 834
7434
 815
7439
 787
7445
 871
7450
 848
7456
 808
7461
 799
7467
 845
7473
 835
7478
 885
7483
 962
7489
 984
7494
 968
7500
 943
7505
 945
7511
 898
7517
 904
7522
 852
7527
 831
7533
 837
7538
 806
7544
 834
7549
 865
7555
 874
7561
 855
7566
 845
7572
 791
7577
 765
7582
 738
7588
 759
7593
 806
7599
 753
7605
 739
7610
 732
7616
 711
7621
 684
7626
 654
7632
 694
7638
 663
7643
 627
7649
 616
7654
 605
7660
 613
7665
 596
7670
 618
7676
 707
7682
 743
7687
 703
7693
 697
7698
 709
7704
 715
7709
 684
7714
 671
7720
 764
7726
 840
7731
 884
7737
 834
7742
 799
7748
 780
7753
 758
7758
 852
7764
 855
7770
 861
7776
 823
7781
 811
7786
 758
7792
 728
7797
 691
7802
 658
7809
 650
7814
 637
7820
 617
7825
 609
7830
 591
7836
 570
7841
 552
7846
 518
7853
 488
7858
 458
7864
 443
7869
 450
7874
 429
7880
 422
7885
 405
7890
 393
7897
 377
7902
 365
7908
 353
7913
 340
7918
 325
7924
 320
7929
 307
7936
 303
7941
 304
7946
 296
7952
 278
7957
 263
7962
 261
7968
 258
7973
 252
7980
 244
7985
 234
7990
 225
7996
 214
8001
 206
8006
 197
8012
 188
8017
 185
8024
 178
8029
 173
8034
 179
8040
 181
8045
 176
8050
 166
8056
 159
8061
 157
8068
 148
8073
 142
8078
 138
8084
 136
8089
 132
8094
 126
8100
 121
8105
 122
8112
 116
8117
 114
8122
 119
8128
 115
8133
 110
8139
 106
8144
 103
8150
 101
8156
 101
8161
 102
8166
 110
8172
 115
8177
 114
8183
 108
8188
 109
8194
 116
8200
 122
8205
 118
8210
 118
8216
 121
8221
 118
8227
 118
8232
 120
8238
 131
8244
 137
8249
 133
8254
 135
8260
 136
8265
 138
8271
 140
8276
 146
8282
 154
8288
 155
8293
 155
8298
 158
8304
 163
8309
 173
8315
 174
8321
 171
8326
 174
8332
 177
8337
 186
8343
 184
8348
 180
8353
 179
8359
 180
8365
 185
8370
 187
8376
 188
8381
 187
8387
 185
8392
 185
8397
 187
8403
 188
8409
 193
8414
 199
8420
 198
8425
 198
8431
 194
8436
 195
8441
 200
8448
 200
8453
 203
8458
 205
8464
 206
8469
 208
8475
 209
8480
 209
8485
 211
8492
 212
8497
 215
8502
 219
8508
 216
8513
 217
8519
 224
8524
 217
8529
 211
8536
 210
8541
 213
8547
 212
8552
 213
8557
 214
8563
 214
8568
 220
8573
 224
8580
 223
8585
 228
8591
 226
8596
 226
8601
 228
8607
 226
8612
 229
8617
 232
8624
 230
8629
 232
8635
 237
8640
 236
8645
 233
8651
 239
8656
 237
8662
 236
8668
 240
8673
 240
8679
 237
8684
 235
8689
 237
8695
 239
8700
 235
8707
 238
8712
 236
8717
 235
8723
 233
8728
 233
8733
 235
8739
 240
8744
 240
8751
 237
8756
 238
8761
 239
8767
 240
8772
 239
8777
 236
8783
 230
8788
 227
8795
 228
8800
 227
8805
 226
8811
 227
8816
 230
8821
 234
8827
 228
8833
 225
8839
 225
8844
 222
8849
 220
8855
 223
8860
 223
8866
 221
8871
 221
8877
 225
8883
 218
8888
 215
8893
 214
8899
 213
8904
 211
8910
 209
8915
 208
8921
 210
8927
 205
8932
 207
8937
 206
8943
 206
8948
 207
8954
 204
8960
 200
8965
 200
8971
 196
8976
 192
8981
 196
8987
 198
8992
 198
8998
 207
9004
 208
9009
 206
9015
 209
9020
 199
9026
 197
9031
 191
9036
 199
9042
 212
9048
 233
9053
 242
9059
 237
9064
 251
9070
 263
9075
 258
9080
 262
9086
 274
9092
 265
9097
 262
9103
 264
9108
 266
9114
 308
9119
 363
9124
 375
9131
 378
9136
 373
9141
 368
9147
 357
9152
 382
9158
 367
9163
 379
9168
 379
9175
 361
9180
 361
9185
 352
9191
 350
9196
 356
9202
 370
9207
 378
9212
 427
9219
 438
9224
 450
9230
 466
9235
 446
9240
 450
9246
 447
9251
 452
9256
 476
9263
 503
9268
 543
9274
 547
9279
 607
9284
 619
9290
 603
9295
 586
9300
 612
9307
 619
9312
 634
9318
 636
9323
 689
9328
 727
9334
 764
9339
 744
9345
 711
9351
 703
9356
 765
9362
 734
9367
 732
9372
 687
9378
 661
9383
 669
9389
 767
9395
 809
9400
 881
9406
 931
9411
 892
9416
 865
9422
 837
9427
 817
9434
 806
9439
 791
9444
 801
9450
 767
9455
 818
9460
 859
9466
 811
9472
 877
9478
 915
9483
 874
9488
 844
9494
 817
9499
 818
9504
 856
9510
 874
9516
 867
9522
 825
9527
 792
9532
 797
9538
 785
9543
 764
9548
 808
9554
 784
9560
 784
9566
 737
9571
 709
9576
 719
9582
 728
9587
 707
9593
 699
9598
 690
9604
 729
9610
 937
9615
 984
9620
 983
9626
 984
9631
 970
9637
 929
9643
 906
9648
 892
9654
 849
9659
 835
9664
 906
9670
 919
9675
 939
9681
 983
9687
 979
9692
 982
9698
 983
9703
 959
9708
 937
9714
 920
9719
 913
9725
 984
9731
 983
9736
 984
9742
 984
9747
 984
9752
 984
9758
 982
9763
 984
9769
 983
9775
 984
9780
 984
9786
 984
9791
 984
9797
 983
9802
 984
9807
 984
9814
 984
9819
 984
9824
 983
9830
 984
9835
 984
9841
 984
9846
 984
9851
 928
9858
 924
9863
 889
9868
 962
9874
 932
9879
 983
9885
 975
9890
 918
9895
 884
9902
 882
9907
 898
9912
 850
9918
 853
9923
 816
9929
 785
9934
 770
9939
 742
9946
 694
9951
 658
9957
 631
9962
 616
9967
 605
9973
 599
9978
 595
9984
 590
9990
 575
9995
 558
10001
 532
10006
 514
10011
 517
10017
 509
10022
 500
10029
 489
10034
 478
10040
 469
10045
 461
10050
 448
10056
 438
10061
 430
10067
 423
10073
 410
10078
 383
10084
 380
10089
 373
10095
 370
10100
 374
10106
 370
10112
 366
10117
 356
10123
 344
10128
 340
10134
 334
10139
 328
10145
 323
10150
 317
10156
 311
10162
 304
10167
 300
10173
 287
10178
 270
10184
 264
10189
 273
10194
 279
10201
 279
10206
 272
10212
 267
10217
 263
10223
 259
10228
 253
10233
 247
10240
 244
10245
 245
10251
 243
10256
 241
10262
 234
10267
 229
10272
 221
10278
 219
10284
 223
10290
 221
10295
 216
10300
 214
10306
 216
10311
 212
10317
 208
10322
 206
10329
 204
10334
 201
10339
 198
10345
 195
10350
 189
10356
 179
10361
 170
10368
 169
10373
 169
10378
 168
10384
 168
10389
 171
10395
 172
10400
 170
10406
 167
10412
 164
10417
 158
10423
 154
10428
 152
10434
 153
10439
 154
10444
 150
10450
 143
10456
 137
10462
 137
10467
 144
10473
 145
10478
 145
10483
 145
10489
 144
10494
 144
10501
 142
10506
 139
10512
 137
10517
 138
10522
 137
10528
 132
10533
 127
10540
 132
10545
 132
10551
 132
10556
 135
10561
 137
10567
 134
10572
 129
10578
 125
10584
 128
10589
 131
10595
 133
10600
 134
10606
 130
10611
 125
10617
 126
10622
 127
10628
 126
10634
 123
10639
 125
10645
 119
10650
 113
10656
 115
10661
 118
10667
 116
10673
 112
10678
 107
10684
 109
10689
 106
10695
 106
10700
 105
10705
 105
10712
 103
10717
 102
10723
 99
10728
 101
10733
 103
10739
 101
10744
 100
10750
 96
10756
 93
10761
 95
10767
 91
10772
 88
10778
 92
10783
 92
10788
 90
10795
 94
10800
 98
10805
 98
10811
 97
10816
 95
10822
 95
10827
 93
10832
 90
10839
 86
10844
 82
10850
 81
10855
 80
10860
 79
10866
 76
10871
 75
10876
 76
10883
 79
10888
 83
10894
 84
10899
 88
10904
 84
10910
 88
10915
 89
10920
 93
10927
 91
10932
 89
10938
 93
10943
 91
10948
 89
10954
 86
10959
 84
10964
 87
10971
 86
10976
 92
10982
 143
10987
 160
10992
 164
10998
 166
11003
 179
11010
 208
11015
 224
11021
 242
11026
 242
11031
 232
11037
 227
11042
 224
11048
 214
11054
 230
11060
 240
11065
 263
11070
 259
11076
 265
11081
 314
11087
 327
11092
 311
11099
 328
11104
 344
11109
 348
11115
 344
11120
 322
11126
 329
11131
 327
11138
 328
11143
 353
11148
 334
11154
 326
11159
 330
11165
 336
11170
 344
11175
 332
11182
 359
11187
 353
11193
 333
11198
 323
11204
 330
11209
 331
11214
 366
11220
 394
11226
 470
11232
 553
11237
 624
11243
 633
11248
 631
11253
 623
11259
 626
11265
 619
11271
 587
11276
 594
11282
 629
11287
 647
11292
 637
11298
 615
11303
 637
11310
 623
11315
 611
11321
 610
11326
 588
11331
 577
11337
 620
11342
 602
11348
 583
11354
 574
11360
 571
11365
 565
11370
 567
11376
 578
11381
 634
11387
 733
11393
 792
11398
 817
11404
 780
11409
 757
11415
 756
11420
 731
11426
 705
11431
 670
11437
 665
11443
 629
11448
 604
11454
 577
11459
 568
11465
 585
11470
 596
11475
 619
11482
 626
11487
 610
11493
 581
11498
 575
11504
 577
11509
 612
11514
 644
11521
 637
11526
 611
11532
 609
11537
 603
11543
 588
11548
 599
11553
 578
11559
 594
11565
 606
11571
 612
11576
 689
11582
 728
11587
 762
11592
 743
11598
 769
11603
 743
11610
 781
11615
 820
11620
 854
11626
 836
11631
 823
11637
 814
11642
 824
11649
 807
11654
 811
11659
 853
11665
 840
11670
 811
11676
 858
11681
 837
11687
 799
11693
 773
11698
 725
11704
 760
11709
 860
11715
 930
11720
 983
11726
 972
11731
 930
11737
 897
11743
 904
11748
 885
11754
 922
11759
 929
11765
 964
11770
 951
11776
 982
11782
 983
11787
 944
11793
 906
11798
 913
11804
 904
11809
 888
11814
 880
11821
 833
11826
 826
11832
 829
11837
 785
11843
 815
11848
 778
11853
 753
11859
 714
11865
 689
11871
 755
11876
 767
11881
 791
11887
 768
11892
 734
11898
 762
11904
 764
11910
 822
11915
 828
11920
 835
11926
 845
11931
 810
11937
 773
11942
 753
11949
 762
11954
 766
11959
 793
11965
 843
11970
 812
11976
 793
11981
 788
11987
 808
11993
 775
11998
 735
12004
 732
12009
 711
12015
 670
12020
 629
12026
 604
12032
 580
12037
 551
12043
 531
12048
 542
12054
 520
12059
 503
12065
 494
12070
 478
12076
 459
12082
 434
12087
 418
12093
 401
12098
 391
12103
 380
12109
 361
12114
 349
12121
 333
12126
 339
12132
 337
12137
 354
12142
 352
12148
 343
12153
 344
12160
 337
12165
 325
12171
 313
12176
 300
12181
 288
12187
 277
12192
 267
12198
 259
12204
 250
12210
 239
12215
 228
12220
 219
12226
 208
12231
 204
12237
 195
12242
 193
12249
 191
12254
 186
12259
 182
12265
 176
12270
 167
12276
 160
12281
 153
12288
 144
12293
 136
12298
 129
12304
 123
12309
 118
12315
 113
12320
 109
12325
 104
12332
 101
12337
 97
12343
 97
12348
 108
12354
 109
12359
 119
12364
 116
12370
 111
12376
 107
12382
 106
12387
 101
12393
 97
12398
 92
12403
 89
12409
 85
12414
 80
12420
 78
12426
 75
12431
 72
12437
 70
12442
 69
12447
 67
12453
 65
12459
 63
12464
 62
12470
 69
12475
 78
12481
 79
12486
 82
12491
 83
12497
 83
12503
 79
12508
 79
12514
 77
12519
 75
12525
 73
12530
 71
12535
 68
12541
 65
12547
 63
12553
 62
12558
 63
12563
 61
12569
 61
12574
 64
12579
 63
12585
 62
12591
 62
12597
 60
12602
 60
12607
 58
12613
 59
12618
 58
12623
 57
12630
 55
12635
 58
12641
 61
12646
 62
12651
 62
12657
 62
12662
 60
12667
 60
12674
 59
12679
 57
12685
 55
12690
 56
12695
 56
12701
 59
12706
 62
12712
 62
12718
 61
12723
 62
12729
 60
12734
 60
12739
 60
12745
 60
12750
 57
12756
 60
12762
 58
12767
 61
12773
 60
12778
 58
12783
 57
12789
 57
12794
 54
12801
 61
12806
 62
12811
 62
12817
 61
12822
 60
12827
 59
12833
 57
12838
 55
12845
 56
12850
 55
12855
 57
12861
 57
12866
 57
12871
 60
12877
 63
12882
 63
12889
 65
12894
 67
12899
 69
12905
 66
12910
 66
12916
 70
12921
 72
12926
 71
12933
 68
12938
 66
12943
 64
12949
 65
12954
 71
12960
 68
12965
 67
12971
 68
12977
 74
12982
 79
12987
 81
12993
 81
12998
 81
13004
 82
13009
 80
13015
 78
13021
 78
13026
 80
13031
 84
13037
 84
13042
 89
13048
 95
13053
 104
13059
 105
13065
 107
13070
 105
13076
 108
13081
 126
13086
 153
13092
 155
13097
 150
13104
 148
13109
 160
13115
 162
13120
 156
13125
 151
13131
 159
13136
 160
13143
 178
13148
 187
13154
 189
13159
 197
13164
 211
13170
 217
13175
 210
13181
 200
13187
 202
13193
 209
13198
 215
13203
 220
13209
 229
13214
 238
13220
 240
13225
 243
13232
 241
13237
 241
13242
 240
13248
 249
13253
 240
13259
 237
13264
 247
13270
 240
13276
 240
13281
 256
13287
 259
13292
 242
13298
 238
13303
 252
13308
 248
13315
 249
13320
 240
13326
 240
13331
 270
13337
 287
13342
 306
13347
 340
13353
 362
13359
 412
13365
 423
13370
 440
13376
 459
13381
 464
13386
 464
13392
 456
13398
 486
13404
 489
13409
 474
13415
 518
13420
 521
13425
 537
13431
 516
13436
 498
13443
 478
13448
 476
13453
 470
13459
 452
13464
 449
13470
 463
13475
 525
13481
 533
13487
 523
13492
 523
13498
 548
13503
 539
13509
 543
13514
 532
13520
 502
13526
 489
13531
 475
13537
 556
13542
 616
13548
 611
13553
 671
13559
 672
13564
 647
13570
 617
13576
 607
13581
 623
13587
 611
13592
 590
13598
 679
13603
 664
13608
 725
13615
 765
13620
 721
13626
 682
13631
 653
13637
 621
13642
 601
13647
 645
13654
 635
13659
 635
13665
 660
13670
 633
13675
 611
13681
 589
13686
 564
13692
 569
13698
 570
13704
 554
13709
 569
13714
 583
13720
 629
13725
 607
13731
 604
13736
 583
13743
 597
13748
 580
13753
 696
13759
 690
13764
 728
13770
 707
13775
 670
13782
 670
13787
 661
13792
 653
13798
 657
13803
 651
13809
 680
13814
 650
13820
 619
13826
 585
13831
 568
13837
 550
13842
 547
13848
 570
13853
 602
13859
 587
13864
 573
13870
 552
13876
 534
13881
 538
13887
 511
13892
 489
13897
 490
13903
 477
13908
 469
13915
 458
13920
 434
13926
 420
13931
 413
13936
 401
13942
 388
13947
 377
13954
 359
13959
 354
13965
 354
13970
 350
13975
 341
13981
 323
13986
 306
13992
 306
13998
 306
14004
 301
14009
 295
14014
 280
14020
 263
14025
 246
14031
 245
14036
 244
14043
 260
14048
 265
14053
 262
14059
 257
14064
 248
14070
 242
14075
 238
14082
 232
14087
 225
14092
 219
14098
 209
14103
 196
14109
 190
14114
 180
14120
 171
14126
 176
14131
 182
14137
 182
14142
 179
14148
 176
14153
 172
14158
 167
14164
 161
14170
 161
14176
 160
14181
 158
14187
 154
14192
 149
14197
 144
14203
 136
14209
 130
14215
 133
14220
 135
14226
 133
14231
 136
14236
 132
14242
 128
14247
 133
14254
 140
14259
 139
14265
 137
14270
 138
14275
 133
14281
 132
14286
 134
14292
 132
14298
 129
14304
 125
14309
 125
14314
 122
14320
 122
14325
 117
14331
 118
14337
 120
14343
 118
14348
 116
14353
 126
14359
 123
14364
 129
14370
 148
14375
 153
14381
 146
14387
 142
14392
 144
14398
 170
14403
 211
14409
 225
14414
 235
14419
 250
14426
 317
14431
 338
14437
 416
14442
 443
14448
 421
14453
 469
14458
 562
14465
 612
14470
 604
14476
 578
14481
 556
14487
 552
14492
 534
14497
 524
14503
 600
14509
 591
14515
 583
14520
 644
14526
 617
14531
 607
14536
 608
14542
 571
14547
 552
14554
 546
14559
 620
14565
 640
14570
 662
14575
 633
14581
 668
14586
 647
14593
 639
14598
 605
14603
 588
14609
 607
14614
 621
14620
 635
14625
 652
14631
 648
14637
 616
14642
 592
14648
 624
14653
 618
14659
 627
14664
 625
14670
 589
14675
 566
14681
 539
14687
 513
14692
 516
14698
 588
14703
 567
14709
 543
14714
 543
14720
 544
14726
 565
14731
 672
14737
 730
14742
 741
14748
 714
14753
 688
14758
 648
14765
 625
14770
 620
14776
 588
14781
 569
14787
 541
14792
 516
14797
 518
14803
 541
14809
 528
14815
 514
14820
 492
14826
 489
14831
 489
14836
 501
14842
 475
14848
 468
14854
 463
14859
 440
14864
 426
14870
 408
14875
 389
14881
 377
14886
 370
14893
 370
14898
 366
14903
 366
14909
 358
14914
 350
14920
 338
14925
 323
14931
 317
14937
 315
14942
 313
14948
 314
14953
 304
14959
 305
14964
 299
14970
 292
14976
 283
14981
 283
14987
 283
14992
 271
14998
 256
15003
 259
15009
 268
15014
 271
15020
 274
15026
 273
15031
 269
15037
 261
15042
 249
15048
 247
15053
 248
15058
 237
15065
 225
15070
 227
15076
 218
15081
 207
15086
 214
15092
 226
15097
 216
15104
 210
15109
 207
15115
 207
15120
 213
15125
 201
15131
 199
15136
 204
15142
 202
15148
 196
15154
 195
15159
 201
15164
 205
15170
 195
15175
 192
15181
 192
15186
 191
15193
 186
15198
 181
15203
 179
15209
 181
15214
 187
15220
 180
15225
 188
15232
 183
15237
 203
15242
 201
15248
 196
15253
 186
15259
 174
15264
 186
15270
 184
15276
 184
15281
 208
15287
 259
15292
 258
15298
 288
15303
 330
15309
 329
15314
 318
15320
 317
15326
 304
15331
 311
15337
 304
15342
 301
15347
 296
15353
 293
15358
 289
15365
 290
15370
 302
15376
 344
15381
 365
15386
 354
15392
 333
15397
 328
15404
 334
15409
 333
15415
 339
15420
 328
15425
 308
15431
 327
15436
 338
15442
 332
15448
 340
15454
 335
15459
 336
15464
 350
15470
 357
15475
 352
15481
 357
15486
 351
15493
 390
15498
 373
15503
 357
15509
 351
15514
 350
15520
 355
15525
 358
15532
 357
15537
 359
15542
 361
15548
 340
15553
 335
15559
 355
15564
 363
15569
 360
15576
 356
15581
 353
15587
 363
15592
 361
15598
 385
15603
 378
15608
 373
15614
 354
15620
 341
15626
 332
15631
 355
15637
 375
15642
 365
15647
 391
15653
 379
15659
 355
15665
 336
15670
 315
15676
 299
15681
 308
15686
 331
15692
 353
15697
 363
15704
 372
15709
 363
15715
 347
15720
 337
15725
 336
15731
 335
15736
 340
15742
 318
15748
 316
15754
 304
15759
 302
15764
 293
15770
 279
15775
 277
15781
 262
15787
 260
15793
 251
15798
 240
15803
 233
15809
 225
15814
 216
15820
 206
15825
 198
15831
 190
15837
 181
15842
 172
15848
 162
15853
 154
15859
 151
15864
 145
15869
 141
15876
 134
15881
 135
15887
 132
15892
 126
15898
 128
15903
 130
15908
 128
15915
 122
15920
 115
15926
 112
15931
 107
15937
 102
15942
 99
15947
 106
15953
 105
15959
 101
15965
 107
15970
 105
15975
 109
15981
 106
15986
 103
15992
 112
15997
 114
16004
 117
16009
 111
16014
 105
16020
 102
16025
 98
16031
 96
16036
 95
16041
 97
16048
 93
16053
 94
16059
 97
16064
 94
16069
 89
16075
 86
16080
 86
16086
 84
16092
 83
16097
 83
16103
 86
16108
 85
16113
 82
16119
 79
16124
 78
16131
 78
16136
 76
16141
 75
16147
 75
16152
 76
16157
 76
16163
 76
16168
 77
16175
 78
16180
 84
16185
 90
16191
 89
16196
 85
16201
 83
16207
 82
16212
 80
16219
 79
16224
 79
16229
 76
16235
 74
16240
 74
16245
 72
16251
 72
16257
 75
16263
 75
16268
 72
16273
 70
16279
 68
16284
 67
16289
 66
16295
 64
16301
 63
16307
 66
16312
 67
16317
 65
16323
 64
16328
 69
16334
 72
16339
 71
16345
 73
16351
 74
16356
 75
16361
 76
16367
 77
16372
 75
16378
 74
16384
 74
16389
 74
16395
 74
16400
 72
16405
 71
16411
 74
16416
 82
16422
 85
16428
 87
16433
 93
16439
 100
16444
 98
16450
 96
16455
 102
16460
 107
16466
 109
16472
 110
16478
 113
16483
 115
16488
 115
16494
 116
16499
 115
16505
 111
16510
 106
16517
 114
16522
 119
16527
 118
16533
 118
16538
 118
16544
 117
16549
 117
16556
 116
16561
 113
16566
 112
16572
 111
16577
 109
16583
 109
16588
 107
16594
 105
16600
 102
16605
 97
16611
 94
16616
 92
16622
 91
16627
 87
16632
 84
16638
 82
16644
 85
16649
 87
16655
 88
16660
 88
16666
 86
16671
 84
16676
 82
16683
 80
16688
 78
16693
 76
16699
 74
16704
 77
16710
 76
16715
 74
16720
 75
16727
 75
16732
 75
16737
 75
16743
 74
16748
 75
16754
 72
16759
 71
16764
 76
16771
 81
16776
 86
16781
 87
16787
 88
16792
 89
16798
 90
16803
 92
16808
 94
16815
 95
16820
 96
16826
 97
16831
 97
16836
 98
16842
 97
16847
 98
16852
 100
16859
 102
16864
 102
16870
 99
16875
 100
16880
 103
16886
 103
16891
 102
16898
 101
16903
 103
16909
 108
16914
 106
16919
 102
16925
 100
16930
 103
16936
 107
16942
 111
16948
 114
16953
 117
16958
 119
16964
 117
16969
 118
16975
 117
16980
 114
16987
 110
16992
 115
16997
 118
17003
 119
17008
 122
17014
 127
17019
 128
17026
 133
17031
 133
17036
 131
17042
 130
17047
 140
17053
 146
17058
 143
17063
 146
17070
 149
17075
 147
17081
 146
17086
 146
17092
 144
17097
 142
17102
 140
17108
 142
17114
 146
17120
 148
17125
 150
17131
 150
17136
 149
17141
 148
17147
 148
17153
 146
17159
 144
17164
 143
17170
 144
17175
 142
17180
 135
17186
 134
17191
 137
17198
 137
17203
 135
17209
 131
17214
 129
17219
 128
17225
 126
17230
 124
17236
 121
17242
 118
17248
 116
17253
 114
17258
 110
17264
 107
17269
 105
17275
 101
17281
 100
17287
 100
17292
 101
17297
 99
17303
 97
17308
 94
17313
 95
17319
 97
17325
 98
17331
 96
17336
 94
17341
 96
17347
 97
17352
 100
17358
 99
17363
 99
17369
 103
17375
 106
17380
 106
17386
 107
17391
 108
17396
 108
17402
 110
17408
 105
17414
 104
17419
 105
17425
 105
17430
 105
17435
 103
17441
 103
17446
 103
17453
 102
17458
 100
17464
 101
17469
 102
17474
 103
17480
 102
17485
 101
17491
 101
17497
 99
17503
 98
17508
 98
17513
 97
17519
 98
17524
 96
17529
 94
17536
 93
17541
 92
17547
 92
17552
 91
17557
 90
17563
 87
17568
 87
17573
 85
17580
 83
17585
 80
17591
 80
17596
 80
17601
 80
17607
 81
17612
 79
17617
 80
17624
 81
17629
 81
17635
 80
17640
 81
17645
 80
17651
 77
17656
 77
17661
 76
17668
 76
17673
 73
17679
 72
17684
 72
17689
 73
17695
 73
17700
 72
17707
 72
17712
 73
17717
 71
17723
 72
17728
 73
17733
 73
17739
 73
17744
 72
17751
 71
17756
 70
17761
 71
17767
 73
17772
 74
17777
 74
17783
 74
17788
 75
17795
 75
17800
 75
17805
 76
17811
 77
17816
 75
17821
 76
17827
 78
17832
 78
17839
 79
17844
 80
17849
 79
17855
 80
17860
 81
17866
 82
17871
 82
17876
 82
17883
 82
17888
 82
17893
 83
17899
 84
17904
 85
17910
 86
17915
 87
17921
 87
17927
 90
17932
 91
17937
 91
17943
 92
17948
 96
17954
 97
17959
 95
17965
 96
17971
 97
17976
 98
17981
 99
17987
 100
17992
 96
17998
 98
18003
 102
18009
 104
18015
 105
18020
 105
18026
 104
18031
 105
18037
 106
18042
 109
18048
 111
18054
 111
18059
 112
18065
 114
18070
 117
18076
 115
18081
 116
18086
 116
18093
 118
18098
 118
18104
 119
18109
 120
18115
 119
18120
 120
18125
 121
18131
 122
18137
 120
18143
 121
18148
 121
18153
 122
18159
 123
18164
 121
18170
 119
18176
 120
18182
 115
18187
 115
18192
 116
18198
 115
18203
 116
18209
 116
18214
 115
18221
 116
18226
 115
18231
 116
18237
 118
18242
 117
18248
 117
18253
 117
18259
 116
18265
 117
18270
 117
18276
 115
18281
 115
18287
 117
18292
 117
18298
 116
18304
 114
18309
 115
18315
 114
18320
 115
18326
 115
18331
 115
18337
 114
18342
 110
18348
 106
18354
 109
18359
 112
18365
 111
18370
 111
18375
 110
18381
 109
18386
 109
18393
 106
18398
 104
18404
 106
18409
 107
18414
 107
18420
 106
18425
 106
18432
 105
18437
 105
18443
 107
18448
 108
18453
 109
18459
 109
18464
 110
18470
 112
18476
 111
18482
 108
18487
 110
18492
 110
18498
 110
18503
 110
18509
 110
18514
 108
18521
 108
18526
 109
18531
 108
18537
 108
18542
 106
18548
 105
18553
 106
18560
 105
18565
 106
18570
 106
18576
 105
18581
 104
18587
 104
18592
 101
18598
 102
18604
 103
18609
 104
18615
 103
18620
 103
18626
 104
18631
 104
18636
 103
18642
 103
18648
 103
18654
 105
18659
 104
18665
 102
18670
 103
18675
 103
18681
 104
18686
 105
18693
 103
18698
 104
18704
 104
18709
 104
18714
 101
18720
 102
18725
 102
18732
 101
18737
 102
18743
 103
18748
 102
18753
 102
18759
 101
18764
 101
18770
 100
18776
 99
18782
 97
18787
 97
18792
 96
18798
 95
18803
 95
18808
 94
18814
 95
18820
 96
18826
 97
18831
 97
18836
 96
18842
 93
18847
 91
18852
 91
18859
 92
18864
 93
18870
 93
18875
 93
18880
 92
18886
 92
18891
 90
18896
 89
18903
 89
18908
 89
18914
 89
18919
 88
